symbol,date,calendarYear,period,revenuePerShare,netIncomePerShare,operatingCashFlowPerShare,freeCashFlowPerShare,cashPerShare,bookValuePerShare,tangibleBookValuePerShare,shareholdersEquityPerShare,interestDebtPerShare,marketCap,enterpriseValue,peRatio,priceToSalesRatio,pocfratio,pfcfRatio,pbRatio,ptbRatio,evToSales,enterpriseValueOverEBITDA,evToOperatingCashFlow,evToFreeCashFlow,earningsYield,freeCashFlowYield,debtToEquity,debtToAssets,netDebtToEBITDA,currentRatio,interestCoverage,incomeQuality,dividendYield,payoutRatio,salesGeneralAndAdministrativeToRevenue,researchAndDdevelopementToRevenue,intangiblesToTotalAssets,capexToOperatingCashFlow,capexToRevenue,capexToDepreciation,stockBasedCompensationToRevenue,grahamNumber,roic,returnOnTangibleAssets,grahamNetNet,workingCapital,tangibleAssetValue,netCurrentAssetValue,investedCapital,averageReceivables,averagePayables,averageInventory,daysSalesOutstanding,daysPayablesOutstanding,daysOfInventoryOnHand,receivablesTurnover,payablesTurnover,inventoryTurnover,roe,capexPerShare
EOG,2023-09-30,2023,Q3,10.557858376511227,3.5060449050086357,4.670120898100173,2.0483592400690847,9.198618307426598,47.9412780656304,47.9412780656304,47.9412780656304,7.217616580310881,73394040000.0,72211040000.0,9.03867487684729,12.006222803860625,27.142766272189352,61.88367622259697,2.6440680164276964,2.6440680164276964,11.812700801570424,20.732426069480333,26.70526627218935,60.88620573355818,0.027658921623608675,0.016159350268768417,0.14925426903955616,0.09492061310055674,-0.33964972724662645,2.42792899408284,71.02777777777777,1.3320197044334976,0.006730791764562898,0.24334975369458128,0.026337313921151646,0.0,0,-0.5613905325443787,-0.24832324554228694,-1.736842105263158,0.009324390642892196,61.49712317081287,0.06257759796472924,0.04650949664352647,-13.261226252158895,6033000000.0,27758000000.0,-5631000000.0,0.14925426903955616,2595500000.0,2334500000.0,1367000000.0,43.09340749222967,154.7522679692952,86.60851360781577,2.088486504953878,0.5815746753246753,1.0391588107324148,0.07313207003386411,-2.621761658031088
EOG,2023-06-30,2023,Q2,9.413793103448276,2.6775862068965517,3.9258620689655173,1.303448275862069,8.213793103448277,45.27068965517241,45.27068965517241,45.27068965517241,7.213793103448276,66375200000.0,65760200000.0,10.684996780424983,12.156630036630037,29.15028546332894,87.7978835978836,2.527904939635145,2.527904939635145,12.043992673992674,23.236819787985866,28.880193236714977,86.98439153439153,0.02339729296484229,0.011389796188938038,0.1580150055223369,0.10000723118085184,-0.21731448763250882,2.3870276065398017,56.285714285714285,1.4661944623309724,0.007231616627897166,0.30907920154539603,0.02600732600732601,0.0,0,-0.6679841897233202,-0.2785714285714286,-1.8800988875154512,0.00641025641025641,52.22416987795154,0.05011185123881877,0.0374334128763227,-13.949137931034484,5175000000.0,26257000000.0,-6324000000.0,0.1580150055223369,2359500000.0,2321500000.0,1243000000.0,37.31868131868132,144.43231441048036,88.75545851528385,2.411660777385159,0.6231292517006802,1.0140221402214022,0.05914613245991545,-2.622413793103448
EOG,2023-03-31,2023,Q1,9.553082191780822,3.464041095890411,5.573630136986301,2.7928082191780823,8.592465753424657,43.5736301369863,43.5736301369863,43.5736301369863,7.219178082191781,66943920000.0,66099920000.0,8.27285219970341,11.99926868614447,20.566488479262674,41.04470876762722,2.63071953471922,2.63071953471922,11.847987094461374,21.858439153439154,20.307195084485407,40.52723482526058,0.030219323875865053,0.024363676342825456,0.16402719377529767,0.10174283973187082,-0.2791005291005291,2.172185430463576,61.23809523809524,1.6089965397923875,0.015938714075901143,0.52743450321305,0.025990320846029754,0.0,0,-0.4989247311827957,-0.29109159347553326,-1.9173553719008265,0.006094282129413873,58.276659337698085,0.06689140115156979,0.04931139549055454,-13.961044520547945,4956000000.0,25447000000.0,-6394000000.0,0.16402719377529767,2663000000.0,2485000000.0,1094500000.0,39.6038716615881,166.73252279635258,77.34802431610942,2.2725050916496947,0.5397867104183757,1.1635720601237842,0.07949856564624513,-2.780821917808219
EOG,2022-12-31,2022,Q4,11.11986301369863,3.8989726027397262,5.897260273972603,3.565068493150685,10.226027397260275,42.429794520547944,42.429794520547944,42.429794520547944,9.273972602739725,75639680000.0,75041680000.0,8.304751866490998,11.647625500461965,21.962740998838562,36.33029779058597,3.0525719359134755,3.0525719359134755,11.555540498922081,20.19964468371467,21.78910569105691,36.0430739673391,0.03010324739607571,0.027525235431984905,0.21687719439848258,0.12989775446568852,-0.16096904441453566,1.9000544168329403,67.92857142857143,1.5125164690382082,0.017543701929992297,0.582784365393061,0.02402217431475208,0.0,0,-0.39547038327526135,-0.20973206036341238,-1.55125284738041,0.005235602094240838,61.01011099357699,0.07462384334743485,0.05503855357617655,-13.592037671232877,4962000000.0,24779000000.0,-6117000000.0,0.21687719439848258,3153500000.0,2625000000.0,965000000.0,39.789036033261475,163.94244604316546,68.50359712230215,2.261929641239986,0.5489731437598736,1.3137996219281665,0.09189232818112111,-2.3321917808219177
EOG,2022-09-30,2022,Q3,13.032590051457976,4.895368782161235,8.18696397941681,6.1200686106346485,9.042881646655232,40.9073756432247,40.9073756432247,40.9073756432247,9.193825042881647,65138590000.0,65185590000.0,5.705903118430274,8.57312319031324,13.647305677770795,18.256331278026906,2.7312922973709592,2.7312922973709592,8.57930902869176,13.743535736875396,13.657152734129479,18.269503923766816,0.043814273535856395,0.054775517861224816,0.2230282192125456,0.13137550324795613,0.00990934008011807,1.7753219631047685,89.36585365853658,1.6723896285914506,0.020141670244934684,0.45970567624386827,0.02132140036851803,0.0,0,-0.2524617640896711,-0.15859436693866807,-1.3300220750551877,0.004474861805738352,67.12507369001291,0.09709142409887232,0.07049176278805543,-14.327615780445969,4455000000.0,23849000000.0,-6437000000.0,0.2230282192125456,3585500000.0,2807000000.0,805500000.0,40.70018425901553,173.73579545454547,55.73863636363637,2.211292200232829,0.5180279617365711,1.614678899082569,0.11966958782338882,-2.0668953687821614
EOG,2022-06-30,2022,Q2,14.828473413379074,3.8387650085763294,3.5128644939965694,1.0703259005145798,5.2710120068610635,38.27101200686106,38.27101200686106,38.27101200686106,9.1852487135506,64386520000.0,66620520000.0,7.192417336907953,7.447833429728167,31.43873046875,103.18352564102564,2.8857350304768734,2.8857350304768734,7.706248698669751,12.782141212586339,32.52955078125,106.76365384615384,0.03475882840072736,0.009691469580899854,0.23785406955898172,0.13914890269802566,0.42862624712202607,1.413488210818308,89.60416666666667,0.9151027703306523,0.023079365059642917,0.6639857015192135,0.014806246385193754,0.0,0,-0.6953125,-0.1647194910352805,-0.8100113765642776,0.003470213996529786,57.493930019017775,0.11998979811511949,0.0586800912451821,-16.437821612349914,2385000000.0,22312000000.0,-7674000000.0,0.23785406955898172,3474000000.0,2778000000.0,662500000.0,38.88374783111625,187.91636625811103,47.95241528478731,2.3145917001338687,0.4789364640883978,1.8768606224627875,0.10030476873431338,-2.4425385934819897
EOG,2022-03-31,2022,Q1,11.606529209621993,0.6701030927835051,1.422680412371134,-0.31099656357388317,6.8883161512027495,37.01030927835052,37.01030927835052,37.01030927835052,9.22680412371134,69391860000.0,70704860000.0,44.48196153846154,10.272666173205034,83.80659420289855,-383.3804419889503,3.221534818941504,3.221534818941504,10.467040710584753,16.667812352663837,85.39234299516909,-390.63458563535914,0.005620255747576156,-0.0026083751033622675,0.24707520891364904,0.13969603905819356,0.30952380952380953,1.3536079182630907,70.72916666666667,2.123076923076923,0.014742363153257457,2.623076923076923,0.01835677276091784,0.0,0,-1.2185990338164252,-0.14937083641746854,-1.191263282172373,0.0051813471502590676,23.622367811603404,0.09836014425114467,0.010237026537522639,-16.91623711340206,2215000000.0,21540000000.0,-8078000000.0,0.24707520891364904,2774000000.0,2451000000.0,585000000.0,42.80829015544042,182.88770053475938,40.29029793735676,2.10239651416122,0.4921052631578947,2.233788395904437,0.018105849582172703,-1.7336769759450172
EOG,2021-12-31,2021,Q4,10.168674698795181,3.4165232358003443,5.449225473321859,3.703958691910499,8.965576592082616,38.17555938037866,38.17555938037866,38.17555938037866,9.271944922547332,51610230000.0,51750230000.0,6.500028967254408,8.735651658767772,16.30139924194567,23.982448884758366,2.326881424706943,2.326881424706943,8.759348341232227,14.593973491257755,16.34561907770057,24.04750464684015,0.03846136705843008,0.04169715965226274,0.24116321009918845,0.139894340412177,0.03948110547095319,2.1237011380504702,66.52631578947368,1.594962216624685,0.027242660999573145,0.7083123425692696,0.023527420446851726,0.0,0,-0.3202779532533165,-0.17163168584969532,-1.0049554013875124,0.005924170616113744,54.17216007703254,0.07231211833647716,0.0519144261952087,-15.15275387263339,4542000000.0,22180000000.0,-7472000000.0,0.24116321009918845,2244500000.0,2107000000.0,552500000.0,35.57041299932295,146.00578871201157,38.03183791606367,2.5301927194860814,0.6164139161462979,2.3664383561643834,0.08949504057709648,-1.7452667814113598
EOG,2021-09-30,2021,Q3,9.003442340791738,1.8846815834767643,3.7796901893287433,2.2375215146299485,7.388984509466437,37.46127366609294,37.46127366609294,37.46127366609294,9.32013769363167,46636870000.0,47710870000.0,10.64768721461187,8.915478875931944,21.23719034608379,35.874515384615385,2.142746152079026,2.142746152079026,9.120793347352322,16.01573346760658,21.726261384335153,36.70066923076923,0.02347927723279886,0.027874941006975813,0.24658855961405926,0.14438286882599807,0.3605236656596173,2.109357060849598,30.645833333333332,2.0054794520547947,0.01758265509670782,0.7488584474885844,0.02714586121200535,0.0,0,-0.4080145719489982,-0.17128656088701968,-0.596537949400799,0.009749569871917415,39.856716910347,0.04116512106480539,0.02945765630044119,-15.900172117039586,3865000000.0,21765000000.0,-8058000000.0,0.24658855961405926,2090000000.0,1992000000.0,518500000.0,37.05983559548843,132.2503725782414,34.94038748137108,2.428505106778087,0.6805273833671399,2.5758157389635317,0.05031013094417643,-1.5421686746987953
EOG,2021-06-30,2021,Q2,7.744827586206896,1.563793103448276,2.6879310344827587,0.9241379310344827,6.689655172413793,36.001724137931035,36.001724137931035,36.001724137931035,9.35,48395200000.0,49893200000.0,13.339360529217199,10.773642030276047,31.042463117382937,90.28955223880597,2.3176667784109957,2.3176667784109957,11.10712377560107,19.933359968038353,32.00333547145606,93.08432835820895,0.018741528085429962,0.011075478559857176,0.25755471481250897,0.14580452758573947,0.5984818218138234,1.7328835582208895,26.022222222222222,1.7188533627342888,0.00493850629814527,0.26350606394707826,0.026714158504007122,0.0,0,-0.6561898652982682,-0.22773820124666072,-0.7668665667166417,0.006901157613535174,35.59119382910241,0.03564145128936444,0.024589941710722516,-17.838793103448275,2933000000.0,20881000000.0,-9069000000.0,0.25755471481250897,1927000000.0,1978500000.0,539000000.0,40.59216384683882,138.01829268292684,35.396341463414636,2.217176702862784,0.6520874751491054,2.5426356589147288,0.043436617020257653,-1.763793103448276
EOG,2021-03-31,2021,Q1,6.962068965517242,1.1672413793103449,3.2241379310344827,1.643103448275862,5.841379310344828,35.796551724137935,35.796551724137935,35.796551724137935,9.394827586206896,42067400000.0,44081400000.0,15.534490398818315,10.417880138682516,22.495935828877005,44.142077649527806,2.026172815721029,2.026172815721029,10.91664190193165,19.635367483296214,23.57294117647059,46.25540398740819,0.016093221829730386,0.022654121718955773,0.2601868798766978,0.14934616128943076,0.8971046770601336,1.8692632850241546,19.829787234042552,2.7621861152141802,0.005205931433841882,0.32348596750369274,0.027241208519068846,0.0,0,-0.4903743315508021,-0.22709262010896483,-1.018888888888889,0.00866765725606736,30.661414990233727,0.02709456710910626,0.018716651461115258,-17.877586206896552,2879000000.0,20762000000.0,-9218000000.0,0.2601868798766978,1686646500.0,1813096500.0,595700500.0,40.742942050520064,133.72803666921314,38.6401833460657,2.2089715536105032,0.6730077120822622,2.329181494661922,0.03260764858876794,-1.5810344827586207
EOG,2020-12-31,2020,Q4,4.9750200129739275,0.5822153672035665,1.9344230052585814,0.4832029039515272,5.7432542475811905,35.02595993264599,35.02595993264599,35.02595993264599,10.635541316439623,28905848880.0,31688414880.0,21.413897162973452,10.024080279063863,25.78029720719419,103.2071611991031,1.4238010919871635,1.4238010919871635,10.98902910591159,22.1569262072423,28.261987981142273,113.14220025992945,0.011674661463877412,0.009689250129366897,0.30103083521251006,0.17069018587862492,1.9456040878741923,1.6942172836423415,9.180211215903315,3.322521379931608,0.007596421088049361,0.6506759199445278,0.039268064228522206,0.0,0,-0.7502082519500766,-0.2917013594965531,-0.8860865901190351,0.01142375212448429,21.42042653138506,0.01440455207893878,0.009425213256810207,-18.460442890563538,2402064000.0,20301887000.0,-9640546000.0,0.30103083521251006,1341410500.0,1463111000.0,648971000.0,48.229432859360784,120.98472612247247,45.2939713680763,1.866080413229077,0.7438955551206792,1.9870194041636413,0.016622395740849113,-1.4512201013070543
EOG,2020-09-30,2020,Q3,3.9760587219343697,-0.0733454231433506,2.095946459412781,1.256328151986183,5.2945699481865285,34.79849050086356,34.79849050086356,34.79849050086356,10.413354058721934,20809260000.0,23719794000.0,-122.50253137730472,9.039101913091223,17.147384580648723,28.607175556148217,1.0328034199962814,1.0328034199962814,10.303376252857127,24.261281542752698,19.545742130751602,32.60838257168545,-0.0020407741553519925,0.034956264662943326,0.2966047898966892,0.17038509816582748,2.9769771530795834,1.6870815041645115,-0.0509747943352992,-28.576376951515293,0.010434873705263907,-5.113193773989215,0.05406278859043202,0.0,0,-0.4005914863215698,-0.21116848772749505,-0.49758647443075393,0.014686782460478042,7.578058804011311,-8.313355089571508e-05,-0.0012107822947459285,-18.43302158894646,2075015000.0,20148326000.0,-9830635000.0,0.2966047898966892,1138920000.0,1263097500.0,672560500.0,44.47062686945787,96.1566634886936,51.63307197293774,2.0238077656110445,0.9359725757391997,1.7430688618947827,-0.0021077185270875604,-0.8396183074265976
EOG,2020-06-30,2020,Q2,2.0950224525043177,-1.5706113989637305,0.1521139896373057,-0.6226234887737478,4.173576856649396,35.2116701208981,35.2116701208981,35.2116701208981,10.41643696027634,29332139999.999996,32892542999.999996,-8.063738750626797,24.18112509459876,333.0397166019483,-81.36538520217808,1.4387275532816413,1.4387275532816413,27.116285990809697,962.5019898168197,373.46484774167175,-91.24170386048226,-0.03100298853066977,-0.012290238625616817,0.2931643060519708,0.16969393644043748,104.18455551003687,2.1339730530486483,-20.042222345193956,-0.0968501755034177,0.007399460114400109,-0.23866925303282222,0.10869995333952176,0.0,0,-5.093137588845743,-0.3697991291143248,-0.3986525337644182,0.03262193965794407,35.275156066837546,-0.03241387769358355,-0.02581887724747642,-19.385300518134716,2443010000.0,20387557000.0,-10236723000.0,0.2931643060519708,1449638500.0,2086743000.0,669489000.0,84.60557056861481,109.9407127438043,58.059367348339805,1.0637597429475443,0.8186230355785277,1.550137456028851,-0.044604853833149306,-0.7747374784110536
EOG,2020-03-31,2020,Q1,6.011147058823529,0.01697750865051903,4.472176470588235,1.5503321799307959,5.029155709342561,37.14649653979239,37.14649653979239,37.14649653979239,9.669941176470589,20761760000.0,23399444000.0,528.935086110262,5.975565004232333,8.03188340984124,23.16922815960861,0.9669821745240893,0.9669821745240893,6.734732444883972,16.403913197401952,9.052296436482704,26.112769670971286,0.00047264779093872573,0.043160695432371825,0.25823761945071594,0.14732751300656075,1.8491182687151013,1.5077891787036084,1.2885432982770195,263.41771119942933,0.008046427663165358,17.024151635585447,0.03288958834552761,0.0,0,-0.6533383263995222,-0.48607100476249,-1.6887246765194088,0.011533359447830918,3.766926697278301,0.0006667260354664055,0.00026074767755739715,-20.079817041522492,2186038000.0,21470675000.0,-9672360000.0,0.25823761945071594,1956144000.0,2660723500.0,714847500.0,45.563231286280995,178.51366169684425,40.883129280531286,1.975276938426859,0.5041630939868341,2.2013970452809337,0.0004570419886659362,-2.9218442906574396
EOG,2019-12-31,2019,Q4,7.311902455897613,1.1008664821860947,3.1255690072639224,0.7590971982013144,3.5073884469041854,37.427734347976475,37.427734347976475,37.427734347976475,9.660157384987894,48430032000.0,51946868000.0,19.021380284389675,11.455295048751791,26.798320499511956,110.34160078375977,2.237912645773828,2.237912645773828,12.287142403675531,25.9522828894451,28.744329915161764,118.3542594153699,0.013143105088181646,0.009062765021505664,0.2562210973056529,0.14935667468865935,1.7569860563640634,1.17525141587185,21.224990785108737,2.839189908895386,0.0034554798559703614,0.2629119856218412,0.02961084191040986,0.0,0,-0.7571331183419249,-0.32364652336873917,-1.2111722566602374,0.010032542193918172,30.447760354033957,0.02400451409153494,0.01714552783964749,-19.815425890695263,786351000.0,21640716000.0,-10210553000.0,0.2562210973056529,2108499500.0,2412103500.0,772708500.0,45.83985257378525,153.81133294075187,48.58493373604595,1.9633570997012524,0.5851324364679162,1.8524261140080047,0.029413121081576045,-2.3664718090626082
EOG,2019-09-30,2019,Q3,7.247347444530397,1.064521432440524,3.567886556636018,0.9878357120235913,2.73969912034321,36.55738016990892,36.55738016990892,36.55738016990892,9.693501130937856,42887210580.0,46865768580.0,17.430367707544193,10.240988246812169,20.802230906685086,75.13395101697587,2.0302330105452118,2.0302330105452118,11.191023587563876,25.8845383387552,22.73201092903596,82.10397256530194,0.014342784053361953,0.013309562274637447,0.2632829615967976,0.1521980750565872,2.197406341649315,1.0773447022640925,20.897501261988893,3.3516343099417676,0.003874581670216893,0.2701415328991647,0.03241749844787239,0.0,0,-0.723131412296087,-0.3559993313911839,-1.5314480946447484,0.013054587134056068,29.590751610203238,0.02359227882767932,0.01683316380819155,-20.590626454773734,346018000.0,21124280000.0,-10598258000.0,0.2632829615967976,2093496500.0,2391241500.0,815624000.0,44.350456086728116,150.7362438104402,48.97159428235371,2.0292914197771355,0.5970694089550245,1.8378000822495244,0.029119193648256887,-2.5800508446124266
EOG,2019-06-30,2019,Q2,7.769400477955183,1.4682246389360303,4.6523447511515945,1.9457642087763654,2.009637031136356,35.72589616596821,35.72589616596821,35.72589616596821,9.741999445849062,53755751400.0,58170973400.0,15.850776088912898,11.981619465251226,20.00926521555769,47.842384796738344,2.6056729148945945,2.6056729148945945,12.965728299763871,28.749136181247493,21.652723741998546,51.77191316134464,0.015772098387968957,0.020901968082246918,0.27026817285430405,0.1559572841431189,2.1820817347443584,1.0184555840579312,22.657109080708505,3.1686872892440916,0.0023650492587105757,0.1499514649562831,0.027143544280887763,0.0,0,-0.5817669771151998,-0.34836414341812516,-1.7677839671992082,0.008595975765616009,34.35413981569408,0.03308204273047679,0.023714836476376195,-20.679680410764384,81464000.0,20630276000.0,-10625704000.0,0.27026817285430405,2383486000.0,2419870000.0,856946000.0,42.593951478629975,151.6102349092736,54.177253060199206,2.1129760652789953,0.5936274688437604,1.6612137920687164,0.04109692958058341,-2.7065805423752294
EOG,2019-03-31,2019,Q1,6.998645200075536,1.1008632951436832,2.785428797641054,-0.6802880075951955,1.9677689286512465,34.482944593534036,34.482944593534036,34.482944593534036,11.316756380293379,55954446580.0,61295841580.0,22.014540867071855,13.851252239355373,34.80254102423918,-142.49846964476262,2.8112448383592334,2.8112448383592334,15.173488700925102,32.98119168645403,38.12478134607646,-156.10133161177282,0.011356130546148991,-0.007017619224212869,0.32542559593026393,0.18161982540429603,2.874021594729969,1.141032132850127,15.964193348632207,2.530222244604407,0.0022794613796714635,0.20072518279075768,0.026406136941485525,0.0,0,-1.244230980943158,-0.4951982428254606,-2.274269408079855,0.009675797534796804,29.22537733304116,0.025144072515802356,0.01781724666385427,-21.15498382729246,606617000.0,19903797000.0,-10851853000.0,0.32542559593026393,2493389500.0,2346093500.0,860061500.0,58.89815917995221,166.30009772593186,58.37090796206395,1.5280613393199944,0.5411903013329734,1.5418639720062641,0.03192486338159498,-3.4657168052362497
EOG,2018-12-31,2018,Q4,7.573103986135182,1.5472582322357018,3.613913344887348,1.3571386481802425,2.6960727902946275,33.560117850953205,33.560117850953205,33.560117850953205,10.640003466204506,50320170000.0,54847798000.0,14.091054450876376,11.515753667144123,24.131735234708145,64.26019929278263,2.598620195176787,2.598620195176787,12.551899783988809,49.03920253780238,26.303022019654446,70.04210101536391,0.017741752462283017,0.015561732005277407,0.3141501208312995,0.17926495633909045,4.048134557887358,1.3564635856370246,20.048911103177435,2.335688555145346,0.002523242667900367,0.14222059930463457,0.026753440354112805,0.0,0,-0.6244684034551617,-0.2979986410907341,-1.4564706040259447,0.0089358925743092,34.180971225858585,0.036204591276114674,0.026308585186851578,-18.765389081455805,1329026000.0,19364188000.0,-9512896000.0,0.3141501208312995,2407654500.0,2337811500.0,813161500.0,48.260081227897416,146.20420205671448,56.0938888207943,1.8648953277760802,0.615577382414001,1.6044528538131329,0.046104076246316135,-2.256774696707106
EOG,2018-09-30,2018,Q3,8.110272081267519,2.063133386689395,3.793125729748083,0.9361996625402336,2.207229399882894,32.114926877942814,32.114926877942814,32.114926877942814,11.257531346686207,74748620460.0,79909311460.0,15.690938942123614,15.966172121288757,34.138072193193544,138.31451257806356,4.032081420958687,4.032081420958687,17.06848652205925,33.17213228783414,36.49498581702478,147.86383209511033,0.015932762272680475,0.007229899316860249,0.3471064764244298,0.19129774370070565,2.142317602552836,1.0885721988444679,23.678133643449836,1.8385266576654642,0.0014376853959131917,0.09023453506102681,0.023770064081601355,0.0,0,-0.7531851751715042,-0.3522602002226975,-1.8345862988828991,0.010466526275677977,38.61076277013807,0.049678009157823874,0.03540523654742995,-20.07350880201783,391945000.0,18538470000.0,-10282174000.0,0.3471064764244298,2372147000.0,2386362500.0,718979000.0,47.524887930355014,161.92775062397928,50.98699892377888,1.8937446024468234,0.5558034348849421,1.7651558612920555,0.06424219474422646,-2.8569260672078496
EOG,2018-06-30,2018,Q2,7.639117567931128,1.2093189964157707,3.3700729863660426,0.44726322823643766,1.7499631162835099,30.292195405590704,30.292195405590704,30.292195405590704,11.279024881321218,71688478050.0,77115060050.0,25.723155008891524,16.28853056567094,36.922049018936285,278.20306285993695,4.107658700004137,4.107658700004137,17.52151875538352,37.636159211347014,39.7169266904853,299.2621196892318,0.00971887001861103,0.0035944967309847918,0.36870569160884176,0.200508563091924,2.648454192903529,0.9847697426826746,15.20917659668369,2.786752706568245,0.0014867661149907756,0.15297726095150066,0.023648976418278532,0.0,0,-0.8672838155001733,-0.38261091443329864,-1.5412417557675304,0.007226044570491936,28.709595352602687,0.031519257526933846,0.02171016920527552,-20.120617997517943,-65449000.0,17452394000.0,-10408134000.0,0.36870569160884176,2118499000.0,2126301500.0,627861500.0,46.46267588816865,165.29229115240165,47.459312647206524,1.937038672000331,0.544490002362051,1.8963612193253592,0.03992180098615697,-2.922809758129605
EOG,2018-03-31,2018,Q1,6.46834440536668,1.1090946984499153,2.6957856801702054,0.19270548391298684,1.41738352655117,29.248645738352653,29.248645738352653,29.248645738352653,11.283426685771351,60611834250.0,66230499250.0,23.728812369928075,16.274643618645168,39.04984019106204,546.27402325267,3.5991409975595343,3.5991409975595343,17.783289110388473,37.56149805331617,42.66972685266911,596.9131562345095,0.010535714813811298,0.0018305831092712724,0.3820970807580401,0.20932500907515642,3.1865300254359123,1.2638007894927943,14.116276066886178,2.430618128404968,0.0016007765018264564,0.15193810103211924,0.025426985018168462,0.0,0,-0.9285160221264993,-0.38697385905742027,-1.9252315349770435,0.009528205351271685,27.016460784456008,0.02950159895883149,0.020773528304680107,-19.656554643741046,748339000.0,16840639000.0,-10314781000.0,0.3820970807580401,1837870000.0,1881391000.0,534297000.0,47.4826108775556,149.92051304347825,45.7614,1.8954307342552175,0.6003181164001167,1.9667230460606537,0.03791952312498356,-2.5030801962572187
EOG,2017-12-31,2017,Q4,5.967935349322211,4.223962460896767,2.3071741397288843,0.47071949947862357,1.449822732012513,28.299049356969064,28.299049356969064,28.299049356969064,11.210345846367744,62091414000.0,67644257000.0,6.386775509901797,18.081630192635302,46.77150204738359,229.24480528111295,3.813202296614446,3.813202296614446,19.69867266558919,91.36066282284521,50.95428338561016,249.74619718517863,0.03914338301266581,0.004362149008234858,0.39224736943242305,0.21409359771727207,7.4996967892070465,1.2031030892204193,7.511000284081942,0.5462108532183925,0.0015665611995887227,0.040021098817182535,0.03407300630469284,0.0,0,-0.795975738730351,-0.3077202638361071,-0.9225249009331793,0.009409572067152988,51.86056062814302,0.12343472643881374,0.08146889838185654,-19.448220802919707,553566000.0,16283273000.0,-10270697000.0,0.39224736943242305,1540633500.0,1741421000.0,413940500.0,44.83949678941161,137.73356001461497,36.07997971799059,2.007159010340468,0.653435517026134,2.4944581649840347,0.14926163800115616,-1.8364546402502606
EOG,2017-09-30,2017,Q3,4.586457845830513,0.17491992630262204,1.6725668643644644,-0.23085233905665267,1.4720999055295652,24.221774130410957,24.221774130410957,24.221774130410957,11.232218071863642,55604507420.0,61145375420.0,138.26326429019005,21.09253006390215,57.83924222172062,-419.05574964202276,3.9939270954781487,3.9939270954781487,23.19435472331954,54.122015580176125,63.60279667513728,-460.81374195493254,0.0018081447829504038,-0.0023863173357106956,0.4587620231881826,0.2217301986561156,4.904425594966758,1.267858977699328,3.1098694305318317,9.561900120348913,0.0017314603521758887,0.9575894411235217,0.042377754798730606,0.0,0,-1.1380227863980619,-0.4150085463341803,-1.1960693424233115,0.016491807581922285,9.763687637400658,0.0072855540681241995,0.0034903640145452376,-22.333790317389344,583939000.0,13922264000.0,-12119078000.0,0.4587620231881826,1288063000.0,1625440500.0,340107000.0,46.78575140599146,130.19088131381247,27.38120989958037,1.9236625958832938,0.6912926549983462,3.286925608111251,0.007221598441173074,-1.9034192034211173
EOG,2017-06-30,2017,Q2,4.51773991668393,0.04013132813057609,1.8772680824247658,0.08955868247107178,2.871398007447266,24.20050692936935,24.20050692936935,24.20050692936935,12.285407153762192,51998218280.0,57335579280.0,563.8986062551511,20.036567325558366,48.21900550457354,1010.7339400536484,3.7404175153928847,3.7404175153928847,22.09322227556927,53.25279406465131,53.1684489269049,1114.4808008397154,0.00044334211368289984,0.0009893800538121054,0.5025857601022607,0.23875394487291166,4.957295099324955,1.2428572058301686,1.8165395594563505,46.778119984383814,0.0018515442102567366,4.176332798334273,0.04181119820466205,0.0,0,-0.9522930777391189,-0.39570879088274125,-1.0880939363501125,0.010635543159859524,4.674608636179936,0.0022597836375887357,0.0007877700148959713,-22.004211935470956,661119000.0,13901715000.0,-11978529000.0,0.5025857601022607,1236662500.0,1586022500.0,325196000.0,41.81385699411907,125.82297830204031,26.190081328398463,2.1523965132577487,0.7152906505197595,3.436415445659998,0.0016582846073308222,-1.787709399953694
EOG,2017-03-30,2017,Q1,4.42671034176344,0.04968681122426755,1.5647224859958009,-0.08452873583245489,2.694670999329192,24.26795891520817,24.26795891520817,24.26795891520817,12.297737548677116,55769263950.0,61209284950.0,488.912437756426,21.950837641952198,62.10046884969529,-1149.5499020901184,4.004045018351577,4.004045018351577,24.09203530679623,56.94639194200536,68.15806815663733,-1261.6829152409614,0.0005113390061157513,-0.0008699056893326634,0.501613377894149,0.2391686025737254,5.061153194189372,1.6703072381148294,1.5066209886037893,31.49170670126591,0.0017340555200208985,3.3912052459936177,0.038272973309129495,0.0,0,-1.0540215511625757,-0.37256813626781243,-1.1599525020954957,0.011989086231679841,5.208689240289744,0.003730380517644377,0.0009762092763741334,-22.00487642328835,1362069000.0,13928231000.0,-11889667000.0,0.501613377894149,1248120000.0,1534350500.0,332105500.0,44.90410699019619,126.23799840894736,25.476176104119347,2.004271012886405,0.7129390606182257,3.532712273308847,0.0020474244001266206,-1.6492512218282558
EOG,2016-12-31,2016,Q4,4.114294024325754,-0.2509289617486339,1.418552793936189,0.1125330512956108,2.8201921381984842,24.64583289264939,24.64583289264939,24.64583289264939,12.440830248545742,57354030000.0,62740493000.0,-100.72571864111498,24.57286703435547,71.26981838967623,898.4027255639098,4.1021133446925635,4.1021133446925635,26.880653236728264,457.9130088896025,77.96319703757091,982.7771459899749,-0.002481987752212007,0.0011130865607874459,0.49968297576647447,0.23715181483635478,39.31323076473937,1.753375810379467,-1.4789624956186471,-5.653204731932112,0.0016758892095289557,-0.6752205799707767,0.04377904568004219,0.0,0,-0.9206705229606894,-0.31743471295895226,-0.6645263364656478,0.013289409474306128,11.796098860708737,-0.003691328148475351,-0.004832136450148243,-22.530371496562665,1527312000.0,13981581000.0,-11923249000.0,0.49968297576647447,1074496000.0,1404033000.0,389842000.0,47.37549372568324,119.68160396029154,27.708609306474003,1.89971634957778,0.7519952692968636,3.2480879500138564,-0.010181395079712373,-1.3060197426405782
EOG,2016-09-30,2016,Q3,3.628636567744479,-0.3468178549133138,1.3865065950153148,0.19316659304392905,1.9143013080509201,21.536132944410575,21.536132944410575,21.536132944410575,12.881499640404645,52981412980.0,58918802980.0,-69.7123855,26.65188375702058,69.75084023955311,500.6559285228304,4.490592635624486,4.490592635624486,29.638641172490637,77.2413868335632,77.56750495338878,556.7621993120653,-0.0035861633224414623,0.0019973797233370804,0.5921285180456323,0.27337658371160684,7.783801003686476,1.5798167646972268,-2.7305314855062237,-3.9977947368421054,0.0017494814650373636,-0.4878421052631579,0.04748566958682633,0.0,0,-0.8606810860197925,-0.3288673251488376,-0.6853373448507213,0.018914887783872972,12.963606643038794,-0.0071882602635745425,-0.007434967222164373,-21.544276318911795,1004801000.0,11798312000.0,-11018845000.0,0.5921285180456323,930419500.0,1300945500.0,462746500.0,41.66850528571537,100.70108261242613,33.37956864688121,2.159904690194238,0.893734185027464,2.696260127028606,-0.016103998605902267,-1.1933400019713858
EOG,2016-06-30,2016,Q2,3.311631815981072,-0.5345135977052445,0.9192651666712343,-0.2042551636566271,1.4245790968967817,22.02801026793463,22.02801026793463,22.02801026793463,12.893334064147187,45658685700.0,51864828700.0,-39.01678103145359,25.18999835592738,90.74639508214315,-408.4107275752263,3.7869966004796836,3.7869966004796836,28.613941239299734,75.6092254784907,103.08107129938428,-463.92383180077996,-0.0064074993731148945,-0.0024485155077514638,0.579417620126766,0.27044984506323483,9.047396418736398,1.4309272943786022,-4.052610114192496,-1.719816241565775,0.0020120158649244695,-0.31400952973427493,0.053904065604014624,0.0,0,-1.2221939556311687,-0.33926486782318166,-0.6253751333496725,0.01494616489717374,16.276396957513068,-0.011642325506410737,-0.011326051358279878,-21.999046287922386,737860000.0,12056701000.0,-11323716000.0,0.579417620126766,880071000.0,1243838000.0,517376000.0,46.69744429462664,105.8531046472872,40.198124510183675,1.9273003343002237,0.8502348636810296,2.2389104242214004,-0.02426517834356181,-1.1235203303278614
EOG,2016-03-31,2016,Q1,2.4299424745982825,-0.8629285825338613,0.5333510146968713,-0.5150764109270827,1.222722990955068,22.69095964076347,22.69095964076347,22.69095964076347,12.902514106984443,39680574700.0,45997701700.0,-21.027232574357324,29.869019846652506,136.08298850101684,-140.9111317471591,3.1986306947376835,3.1986306947376835,34.62415238098106,133.9681655346762,157.7473299930382,-163.34411115056818,-0.011889343931301479,-0.0070966714098523375,0.56310626393738,0.26522499088119283,18.398613068956276,1.5283299697927353,-9.330910951893552,-0.6180708641389134,0.002322799019339808,-0.19536814081258902,0.07567336050210541,0.0,0,-1.9657362538624306,-0.4314618294810785,-0.6170702482853209,0.024373610260100594,20.989646182834626,-0.02183735739880863,-0.017912082283741894,-22.644775614351172,817840000.0,12405488000.0,-11567123000.0,0.56310626393738,895492000.0,1326989000.0,568930500.0,55.52960287123839,88.7791250792803,40.47746770370865,1.6207571339685483,1.0137518241999959,2.2234592504351247,-0.038029620438954116,-1.048427425623954
EOG,2015-12-31,2015,Q4,3.269882869692533,-0.5203074670571011,1.1270369692532942,-0.4154282576866764,1.3149816983894582,23.687838579795024,23.687838579795024,23.687838579795024,12.304643118594436,38679656000.0,44621414000.0,-34.01354222359794,21.64909350610971,62.81071688970516,-170.4024670690339,2.988453326441596,2.988453326441596,24.974709290610882,-264.06953650222516,72.45935698012221,-196.57876558438699,-0.007350013660928112,-0.005868459636766159,0.5145828625202666,0.2469028269030671,-35.1633249692264,1.4248680939291052,-5.234756242757132,-2.1660980105242422,0.002389576577413201,-0.3251118552494583,0.06101538957520832,0.0,0,-1.368602156823581,-0.4717188010728374,-0.901899997324701,0.016036031397061785,16.652674982085884,-0.011990764618076645,-0.010539144706160953,-22.484901171303076,772957000.0,12943035000.0,-11439965000.0,0.5145828625202666,1074046000.0,1516763500.0,629593500.0,48.92820362418451,125.328771477712,50.99604929301644,1.8394298857012255,0.7181112440410801,1.7648425956072027,-0.02196517277439179,-1.5424652269399708
EOG,2015-09-30,2015,Q3,3.902335507033998,-7.465817335873388,2.072523446658851,-0.4130330451348183,1.3604355949589684,24.333644123681125,24.333644123681125,24.333644123681125,11.889619358147714,39742976000.0,45430497000.0,-2.4377772963381608,18.65549486167381,35.126261233551816,-176.2570836825836,2.991742610764664,2.991742610764664,21.32523752994208,57.7123850973338,40.15309536940797,-201.48080786578146,-0.10255243593232677,-0.005673530839763987,0.4840486342332555,0.235735299826995,7.225111409218637,1.3800741684868447,-102.73822456290965,-0.27760168156008025,0.0023009600488901488,-0.022436912667862196,0.04269647942627618,0.0,0,-1.1992899263941625,-0.6369407467178129,-0.19401928475178845,0.018905698230771,63.93424120320756,-0.20502678973887647,-0.14941900111840464,-22.050163943434935,777997000.0,13284223000.0,-11168066000.0,0.4840486342332555,1265037000.0,1713028500.0,660707000.0,49.71454160628963,135.02066500782985,57.08833786471193,1.8103355093314117,0.6665646328640206,1.5765041226683145,-0.3068104924164552,-2.485556491793669
EOG,2015-06-30,2015,Q2,4.599562972957118,0.009657124420719188,1.6267030122602217,-0.6974705959992961,2.5066635625036664,31.947048967560274,31.947048967560274,31.947048967560274,11.843997477562034,47758875200.0,52791944200.0,2266.461427486712,19.034417077175696,53.8205187671926,-125.52500492807637,2.7404722135337183,2.7404722135337183,21.040359095764185,48.84484141046198,59.49239406653121,-138.7534574069645,0.00011030410531946531,-0.007966540217010806,0.36726773133306284,0.18889286584479043,4.656760815278185,1.6410911401175194,0.6551484690165994,168.44589977220957,0.0019152251726397445,17.36313591495824,0.03281043250912685,0.0,0,-1.4287633272592246,-0.505303138999155,-1.237806902099841,0.011397803178854402,2.634696206771685,-0.000763268834800899,0.00015547116853877407,-25.194874831348624,1460137000.0,17427243000.0,-12719135000.0,0.36726773133306284,1340499000.0,2023262000.0,712684000.0,48.54235018413123,135.99570625534895,48.22526841982417,1.854051146238517,0.6617855995468985,1.8662415565322872,0.0003022853356666915,-2.324173608259518
EOG,2015-03-31,2015,Q1,4.092282907460211,-0.31146536317564466,1.7624780274423026,-1.0734938476838447,3.9035354258180766,32.05607727000833,32.05607727000833,32.05607727000833,12.758971592556303,49970866620.0,54743716620.0,-73.59566330678418,22.40558682608419,52.02334359484752,-85.41269258117227,2.8603000681491735,2.8603000681491735,24.545603846322848,75.8829655001296,56.99223111414642,-93.57068537497521,-0.003396939286461388,-0.01170786179173132,0.3949669322534481,0.19889826761750554,6.61588277612441,1.5488698286647848,-3.242946855375387,-5.658664608714094,0.0018342887806415233,-0.539982798030021,0.037796497848258025,0.0,0,-1.6090821167522256,-0.6930048433250264,-1.6932726985893767,0.014819624030281317,14.988263720325234,-0.005098569303574403,-0.004892937236437641,-25.168271259711045,1698616000.0,17470498000.0,-12428588000.0,0.3949669322534481,1589317000.0,2521294500.0,735401500.0,53.5775142739541,149.87940727082344,52.4915628591795,1.6798091740465857,0.6004827590315672,1.714561257043258,-0.009716265672564114,-2.8359718751261473
EOG,2014-12-31,2014,Q4,6.333984575835475,0.8163569592361366,3.8752074917370547,0.1906830701432244,3.8325615130370916,32.52402130003672,32.52402130003672,32.52402130003672,10.94320235034888,50141322000.0,53964042000.0,28.195386515155604,14.535873729666548,23.75872780910882,482.8430753230746,2.830830761997319,2.830830761997319,15.644072975467664,97.77493880464776,25.57006744571506,519.6545076363076,0.008866698807821621,0.0020710662554928247,0.33365734030193905,0.17000794558832577,6.926208642178863,1.600333362093521,24.663757916959888,4.74695223442828,0.00183531259905752,0.2069893924262463,0.038059271404915745,0.0,0,-0.9507941005611158,-0.5817071982856586,-5.638220691166677,0.012016276038646894,24.44181356690128,0.020099571970053038,0.012789230015504843,-24.277257620271758,2031713000.0,17712582000.0,-11634084000.0,0.33365734030193905,1939000500.0,2817945000.0,689748000.0,48.29234947331314,179.7207950318884,44.39365275714557,1.8636492318464428,0.5007767742404602,2.027316843971882,0.0251001237425464,-3.68452442159383
EOG,2014-09-30,2014,Q3,8.401846377834643,2.0287692285067207,4.295106106061943,0.41125106620782964,2.722773096267537,32.57429997941116,32.57429997941116,32.57429997941116,10.955313023912469,53865295680.0,58293961680.0,12.20197923556883,11.785504703017414,23.054145242243745,240.77749126116382,3.0398197371113533,3.0398197371113533,12.754478572225613,25.00906798323232,24.94959773915254,260.5735970033167,0.020488479383020813,0.004153212141060691,0.33351269854939347,0.17129448541940218,1.8999705265704898,1.4457186186827895,35.935981007564784,2.117099394899322,0.001262148460186453,0.06160283721360108,0.021208103324165787,0.0,0,-0.9042512440781367,-0.46226208683133246,-3.8979209292628885,0.008421890965261778,38.56071955194133,0.04863923506190275,0.03198810882608425,-24.712287034177475,1505970000.0,17719898000.0,-11896269000.0,0.33351269854939347,1976922000.0,2718407500.0,670003500.0,39.916290884744896,172.26510177043943,41.76674972534085,2.2547185122953386,0.522450566452711,2.154824126651994,0.06228128401190571,-3.8838550398541134
EOG,2014-06-30,2014,Q2,8.108713144380674,1.3005971287002922,3.562103778500789,-0.534501076231037,2.265038234281411,30.764902899839623,30.764902899839623,30.764902899839623,10.976902921935043,63466549140.0,68146087140.0,22.462759109114,14.411657918986046,32.80645575384774,-218.63379737983445,3.798484278674879,3.798484278674879,15.474263366875318,28.232676773012404,35.22535292764561,-234.7541816891559,0.011129532164130517,-0.004573858259721351,0.3536952816752879,0.17745483708488094,1.9387156232405351,1.3356218694231243,22.070487978869032,2.738821807226698,0.0010699179476453256,0.09613323649789836,0.0206483713963787,0.0,0,-1.1500520786219195,-0.5052102327199436,-1.8166380069142674,0.006716647357734192,30.004778760493817,0.03247549966816006,0.021210251478915927,-25.01435419693279,1187258000.0,16708388000.0,-11869301000.0,0.3536952816752879,1864315500.0,2654341000.0,651263500.0,39.376995136510594,174.13838302327105,43.64842642472356,2.2855984741342397,0.5168303416942422,2.061930002338452,0.04227535295445617,-4.096604854731826
EOG,2014-03-31,2014,Q1,7.773579234267294,1.2187992136874444,4.181753639277271,0.6732284916592597,3.074459963339837,29.566594993711714,29.566594993711714,29.566594993711714,10.990088109788706,53186626240.0,57428945240.0,20.11816197830929,12.617096583726353,23.45427503877323,145.68605044963118,3.3172571958610675,3.3172571958610675,13.623472666323641,25.132676642023675,25.325055790671758,157.30639081618398,0.01242658252128308,0.006864075159658031,0.3685782614873008,0.18386105124349714,1.8565695607630706,1.4201956507782623,21.61985563885787,3.4310439261160064,0.0009735530087271804,0.07834438849617507,0.019656780868241307,0.0,0,-0.8390080933185693,-0.45133972934267136,-2.010157518666316,0.008436839704315633,28.47462399083431,0.031683451546247736,0.02056320829457737,-23.551869151984775,1426834000.0,16033314000.0,-11285498000.0,0.3685782614873008,1732753000.0,2450813500.0,599343500.0,38.46976864342307,183.0924058347019,43.948321958364616,2.3394993828585635,0.4915550679980311,2.047859758678919,0.041222170288687666,-3.5085251476180113
EOG,2013-12-31,2013,Q4,6.813987451519757,1.0725623079738678,3.699527860657889,0.5473303977136181,2.436876781614295,28.50297998676383,28.50297998676383,28.50297998676383,11.02841154874275,45395852640.0,49990864640.0,19.560635166857985,12.315843050354154,22.6839756749599,153.32603551814748,2.944253549592732,2.944253549592732,13.562464565655953,25.717343880057083,24.980069577210017,168.84584475502746,0.012780771067372113,0.0065220495437752395,0.38351569375383104,0.19340534341362817,2.363861969341382,1.422927711904326,18.669282041515903,3.4492428394640413,0.0011332973610604265,0.08867206486106372,0.02470610194542986,0.0,0,-0.8520539867981192,-0.4626068781857269,-1.762065427099017,0.00837879397890163,26.226942158238128,0.02901105668017072,0.018976564518141056,-22.753268372579686,1210299000.0,15418459000.0,-11083764000.0,0.38351569375383104,1777731500.0,2251066000.0,564636000.0,40.621171294844345,164.88676802703233,41.19708060042567,2.2155934240976167,0.5458291230818775,2.184620819929412,0.03762983058164243,-3.1521974629442715
EOG,2013-09-30,2013,Q3,7.052070373663671,0.8549878822274518,3.720317003148218,0.16750070710114412,2.4380052538077166,27.473569206253547,27.473569206253547,27.473569206253547,11.780314304147772,45785246240.0,50779502240.0,24.748888773573075,12.002149087464094,22.750749446451923,505.3112996644888,3.080779179602707,3.080779179602707,13.311343861229322,24.40315592894854,25.232401861988638,560.4306710224263,0.010101463636902785,0.001978978108472875,0.42479150938190957,0.20940778385571895,2.400094576371862,1.2523304373959807,12.963002256576067,4.351309627284874,0.0011078896405647025,0.1096761499509187,0.025861169553790364,0.0,0,-0.9549767648941203,-0.5037976236475536,-1.5363555259951844,0.011913481183845668,22.989460562176994,0.023301535132539374,0.015341289609307907,-22.673473169902078,844634000.0,14861580000.0,-11093723000.0,0.42479150938190957,1862108500.0,2224827000.0,611702000.0,44.63280463170103,160.66703730472008,40.45807686503745,2.016454057562772,0.5601646828733549,2.2245249150182684,0.031120378856083944,-3.5528162960470735
EOG,2013-06-30,2013,Q2,6.691204056048426,1.2215771999118572,3.5012249251434633,0.28423077848946265,2.273964739191864,26.636568505998707,26.636568505998707,26.636568505998707,11.803789768403043,36533232450.0,41618005450.0,13.844806534716202,10.110287989027725,19.321809208595198,238.01081768668482,2.5397415581051606,2.5397415581051606,11.51745937631712,22.609486579252167,22.01105971248857,271.13766955060134,0.018057312637278007,0.0042014897042049176,0.4388566654426747,0.21710479073053648,2.7623646462385616,1.4041107796138335,17.71447110159456,2.8661511735779728,0.0013901315759427138,0.07698441090690807,0.02230736042990244,0.0,0,-0.9188196175434755,-0.4807795607049289,-2.1646552067862164,0.007551741801719178,27.057698670496922,0.03362237579093618,0.022687641485658567,-21.77923756511176,1220537000.0,14384626000.0,-10451686000.0,0.4388566654426747,1874020500.0,2230086000.0,677439000.0,45.63932019933189,164.41713210477585,49.08754218810669,1.971983798332682,0.5473882122128668,1.8334590812290843,0.04586090733259245,-3.2169941466540006
EOG,2013-03-31,2013,Q1,6.098188844977975,0.9183393135913661,2.6450529684416866,-0.5037691403835409,2.056801623115662,25.535316316359054,25.535316316359054,25.535316316359054,11.832589281570844,34612567250.0,39817029250.0,17.490811688311688,10.535915110748272,24.290628870790595,-127.5385783874807,2.516123129394665,2.516123129394665,12.120130734890257,23.93427096914581,27.943049507521394,-146.71570789530895,0.014293218888581575,-0.007840764830872232,0.45888006732038367,0.22358879782044971,3.1284353981939157,1.3272937020337978,13.453820190242405,2.8802567082722725,0.0013353531295775237,0.09342564050735257,0.02373829522604117,0.0,0,-1.1904571085698645,-0.5163536566136957,-2.004191930887489,0.009264586183237661,22.970130807460166,0.026985497235320483,0.01752317435159119,-21.500719765665462,1006327000.0,13756309000.0,-10395286000.0,0.45888006732038367,1800709000.0,2168590000.0,690332500.0,52.480042298820344,181.48257153368363,56.05274437177871,1.7149376421524538,0.4959153886757428,1.605630571860331,0.035963498639060815,-3.1488221088252275
EOG,2012-12-31,2012,Q4,5.561379695053923,-0.9390089252510226,2.281865005578282,-0.6018854592785422,1.6296671625139456,24.702052807735217,24.702052807735217,24.702052807735217,11.847406098921532,32483120000.0,37918866000.0,-16.08078431838479,10.860614328080752,26.46957635633363,-100.35131945602946,2.4451409148103798,2.4451409148103798,12.678036450444848,60.856552707009946,30.89901213099552,-117.1441732006154,-0.015546505384950707,-0.009964991047657983,0.4751443834455772,0.23090604098289114,8.723909701068552,1.2277061535715093,-6.369595983421505,-2.4300780793625334,0.00143668465344462,-0.09241206418230531,0.028980811859935604,0.0,0,-1.2637690914261641,-0.5185314837290323,-0.8074069523541285,0.008840453239983817,22.84507783562846,-0.02185257036308803,-0.01847338024532551,-21.51255066939383,665826000.0,13284764000.0,-10461930000.0,0.4751443834455772,1659835500.0,2115020500.0,670533500.0,50.72713321363732,178.83680052760613,58.76961676869919,1.7741984279096752,0.503252125594291,1.5314035542245388,-0.038013396399062864,-2.883750464856824
EOG,2012-09-30,2012,Q3,5.505286611604793,0.6633755192374441,2.680388593011148,-0.5673693089150224,2.076246263169877,25.739752408179413,25.739752408179413,25.739752408179413,12.910715418692922,30598862200.0,35791516200.0,21.518731979149965,10.371848738926115,21.302881287020355,-100.63991672230573,2.2183585566213577,2.2183585566213577,12.13196065058993,23.235058328626796,24.917999097726774,-117.71859967175696,0.011617784925349282,-0.00993641521742596,0.4571204345244525,0.22492746006767647,3.370955784498932,1.5514227327747663,0.9876154125831712,4.04052985870247,0.001487637014163226,0.12804824876016552,0.03147939247179159,0.0,0,-1.2116742737953679,-0.5899343905329295,-1.6727393128795203,0.015548521719323269,19.600771322155502,0.019125655201179648,0.012681391746455925,-21.59438178554234,1421779000.0,13793470000.0,-10238859000.0,0.4571204345244525,1518715000.0,2193365000.0,639070000.0,49.844382587662324,434.0712232570863,132.7542678798043,1.805619717361634,0.20733924567650028,0.6779443059524534,0.025772412598135206,-3.24775790192617
EOG,2012-06-30,2012,Q2,5.097667813275178,0.7415072281301288,2.802095745557829,-0.9717881846864063,0.5252928348209267,25.021435209124906,25.021435209124906,25.021435209124906,10.695884574743138,24050684880.0,28782203880.0,15.192029925867534,8.839336271119164,16.080820961037382,-46.36812909444948,1.8008559310605556,1.8008559310605556,10.578309099662976,23.438944823345942,19.244419432032217,-55.49018465750255,0.01645599707346047,-0.02156653760955185,0.37527817939174135,0.1927756661451125,3.853138322346321,1.100046269692605,0.9932928176478522,3.7789189899388043,0.001897742215148095,0.115322226096448,0.02783190670631085,0.0,0,-1.3468076300486824,-0.7403157813493478,-2.7218876302465143,0.009970340369073127,20.43172628486164,0.023085445092352417,0.015223063939230213,-20.609495492254773,268118000.0,13355141000.0,-9695378000.0,0.37527817939174135,1485812000.0,2262770000.0,590886000.0,46.42581233208496,481.5669262693326,133.60697720059932,1.938576741667498,0.18688991101864927,0.6736175152355464,0.029634879931256436,-3.773883930244235
EOG,2012-03-31,2012,Q1,5.262325911037446,0.6075001687453595,2.020453812520156,-1.822284887165603,0.5513548377419621,24.359035751516835,24.359035751516835,24.359035751516835,9.488724060088348,29627481400.0,34343940400.0,22.86007595468027,10.556168686452288,27.49382324692257,-30.48370778424384,2.2804679366891976,2.2804679366891976,12.23662664150263,23.822463517800983,31.870620867572068,-35.3364712031542,0.01093609664708118,-0.032804408409821836,0.38566683726088746,0.19606409350991502,3.2715428443005363,1.0972771445998644,11.135530844058962,3.3258489733309875,0.0014597933390315117,0.13348394643358671,0.027174379714471092,0.0,0,-1.901918606539502,-0.7302357863517766,-2.737277009601425,0.010096730943747549,18.247127511315753,0.019369723191962493,0.012678622745380884,-20.27346122981618,269686000.0,12991843000.0,-9521660000.0,0.38566683726088746,1522960000.0,2161759000.0,576053000.0,50.28325930085358,446.34005145797596,109.44799625760174,1.7898601095349485,0.20163998213024745,0.822308338913505,0.024939417756202873,-3.8427386996857584
EOG,2011-12-30,2011,Q4,10.55441794964508,0.4593906407597008,4.707735931642149,-2.0791976706567454,2.3435248444249908,48.112752393095704,48.112752393095704,48.112752393095704,20.002816526157535,12942326100.0,17335766100.0,26.80725053439162,4.667239845438989,10.46362852871766,-23.69183108234269,1.0238449797577769,1.0238449797577769,6.251594780410492,11.590201748181151,14.015642576888592,-31.734329590428317,0.009325835175795794,-0.04220864130444063,0.4112719311846684,0.20930357456522553,2.937329430657754,1.2900580775072463,5.346698238235762,10.24778372466818,0.003325213695550447,0.3565593464680442,0.030691503652161996,0.011194313770390712,0,-1.4416555433115554,-0.6430419597441773,-2.571154403505559,0.012004262508497069,22.30038863759966,0.008472075747625865,0.0048592530467558475,-38.74052943079529,731619000.0,12640904000.0,-8943955000.0,0.4112719311846684,1377749000.0,1980035000.0,585474500.0,47.96412568990792,410.7262114745048,119.28139600640912,1.8764023883570302,0.21912407215721758,0.7545183323907795,0.009548209526787008,-6.786933602298895
EOG,2011-09-30,2011,Q3,5.42325025464851,1.0164854371121543,2.3910329896674725,-0.8131030283439766,2.606112315967119,23.47999834619418,23.47999834619418,23.47999834619418,9.922707129782411,18895084060.0,22736102060.0,8.733524038692643,6.547733984719366,14.851321647778047,-43.672202368157684,1.5123510434895637,1.5123510434895637,7.878766120626085,13.492074604855961,17.87031820750572,-52.54994616982968,0.02862532912171654,-0.022897860556011732,0.41842561234937387,0.21084145557365172,2.279339760079993,1.400941296309562,18.204690913271758,2.352255037180288,0.002253019878864725,0.07870721308686987,0.028505647070564816,0.0,0,-1.3400634921633001,-0.5908147084426061,-6.957036239069316,0.014426089077894643,23.173459357685175,0.03224537361643373,0.021814278047893987,-18.164948337361352,1069039000.0,12493848000.0,-8565468000.0,0.41842561234937387,1292548000.0,1898313500.0,560224500.0,39.84746394690589,387.6955741051723,116.79539096932307,2.258612997803801,0.23214090129278908,0.7705783529046877,0.04329154636746021,-3.204136018011449
EOG,2011-06-30,2011,Q2,4.834386638076967,0.5559455290975436,2.091095813113644,-1.2476150171162022,2.9670052289056916,22.715993303991272,22.715993303991272,22.715993303991272,9.926464281683783,27795184800.0,31443997800.0,23.509497452414625,10.814195039393056,25.001245601537033,-41.903952166945324,2.3014622033197307,2.3014622033197307,12.233828538079953,20.288400497854308,28.283284221660946,-47.40489366160767,0.010634000174015753,-0.023864097496484354,0.43273751292209234,0.21812965185783822,2.354299219731445,1.4691439191224753,11.477435467192164,3.761332187540176,0.001531164491484151,0.1439876308470975,0.026225464448983563,0.0,0,-1.5966321625686304,-0.6906172551308238,-2.8805137692095486,0.010114580293745744,16.85672671719462,0.01849775740869523,0.012336463311507364,-17.0299317232818,1161712000.0,12077185000.0,-8244244000.0,0.43273751292209234,1283264500.0,1854565500.0,510960000.0,45.781173037642255,443.7646128292336,128.15645020960216,1.9658736119758244,0.2028102228030363,0.7022666424733472,0.024473749470592693,-3.338710830229846
EOG,2011-03-31,2011,Q1,3.7169004702194357,0.2624862852664577,1.8759561128526645,-1.430564263322884,3.2685834639498434,23.096353840125392,23.096353840125392,23.096353840125392,10.33514498432602,30246304000.0,33802744000.0,56.441044090973556,15.943391671314096,31.589225139114014,-41.4242138709324,2.5657729531770226,2.5657729531770226,17.81805760985417,36.34684114601534,35.3035693397724,-46.29498192177057,0.004429400696362769,-0.02414047018769632,0.4432097916091771,0.22189888166420774,3.824108472535094,1.4389312656513042,5.412969622315379,7.1468728773708134,0.0012895129269348082,0.2911258238600315,0.03691781060204332,0.0,0,-1.762578747723209,-0.889590776688282,-2.970029530503708,0.014458865240002403,11.679285627152865,0.009504915104958963,0.0056899566720160204,-17.44440389890282,1097412000.0,11788379000.0,-8159540000.0,0.4432097916091771,1213645000.0,1751951500.0,448809000.0,59.732323865930525,407.8740345706273,106.86715396103288,1.50672189151732,0.22065636047350703,0.8421670893642104,0.011364836505511063,-3.3065203761755484
EOG,2010-12-31,2010,Q4,3.5640637450199204,0.1069183266932271,1.2407868525896415,-1.981179282868526,1.5714203187250997,20.38173705179283,20.38173705179283,20.38173705179283,10.487474103585658,22946420000.0,27380908000.0,106.8806476254355,12.825247602226744,36.839526389725066,-23.07211689283215,2.2426940296523568,2.2426940296523568,15.303778309374232,28.575894767382398,43.95891310455549,-27.530896323168623,0.002339057683072131,-0.04334236015901391,0.5105090761669302,0.241550347704818,4.628022651229099,1.1384384209893343,4.220613473205868,11.60499692582863,0.0016979990778517955,0.7259329644327688,0.04136242706074359,0.0,0,-2.596712020870961,-0.9040147331708734,-2.359065199191391,0.014351986407028996,7.00225516996334,0.00434468011188852,0.0024820764741112435,-18.963557270916336,307347000.0,10231632000.0,-8865155000.0,0.5105090761669302,1077642000.0,1603106000.0,398527500.0,58.763637684723555,399.37781852685,99.73795029797759,1.5315593715090374,0.22535052229984912,0.9023646438603917,0.0052457907008383415,-3.2219661354581675
EOG,2010-09-30,2010,Q3,3.151543824701195,-0.14124701195219125,1.5625239043824701,-1.5450936254980079,0.055442231075697214,20.155625498007968,20.155625498007968,20.155625498007968,7.572764940239044,23337980000.0,27078786000.0,-82.28492652243816,14.75150040295182,29.7531448124459,-30.08879153521557,2.3065520841610563,2.3065520841610563,17.11599386881153,22.769881865431365,34.52222691095084,-34.91167388868762,-0.003038223530913987,-0.03323496720795887,0.37246410500602684,0.18895285246188004,3.1455513072667602,0.7916447402362895,-0.35557920340529037,-11.06235015372465,0.0016752949484059889,-0.5514060869319944,0.05139452933647267,0.0,0,-1.988844792175291,-0.9860619755700583,-2.199044276229543,0.023227091003903102,8.003483129330192,-0.0015385265949714024,-0.0035551015928465576,-17.665248505976095,-403855000.0,10118124000.0,-8292290000.0,0.37246410500602684,913959000.0,1398462500.0,343913000.0,56.15284357568383,393.334467563843,97.29902853156848,1.6027683420643934,0.2288128995087162,0.9249835415448129,-0.007007820817376818,-3.107617529880478
EOG,2010-06-30,2010,Q2,2.707272727272727,0.11936204146730463,1.3577611642743221,-1.1921949760765551,1.2960805422647528,20.19740629984051,20.19740629984051,20.19740629984051,7.503915470494418,24673704000.0,27757657000.0,103.02689070016034,18.169576897246476,36.22875752694724,-41.26002959841473,2.435461230504059,2.435461230504059,20.44058254686414,36.18457385026717,40.7569704560438,-46.41709851924315,0.0024265509548140806,-0.024236531329061905,0.36857763271394517,0.19182820351076302,4.020206931703673,1.2297654185735913,4.699501622236345,11.375150320684126,0.0015761719440259153,0.6495523784072689,0.047671962815029514,0.0,0,-1.8780594168148441,-0.941891119672923,-2.3517499425419444,0.016538681323860355,7.3649902977943675,0.0055125818510378235,0.0030757718596362634,-15.750890649920255,358006000.0,10131019000.0,-7418521000.0,0.36857763271394517,876050500.0,1194971500.0,309815000.0,55.72635732211657,334.5960005684712,81.69010623304949,1.6150346860063105,0.2689810991377422,1.1017246047305123,0.0059097707742922995,-2.549956140350877
EOG,2010-03-31,2010,Q1,2.7373347445780247,0.2356811918360826,1.23874066381755,-1.0076806326636578,0.4594879578224228,20.299790310340697,20.299790310340697,20.299790310340697,5.636513959340177,23269387800.0,25836303800.0,49.293284328263354,16.97636728282701,37.51390533736802,-46.115801468927,2.2891862078165515,2.2891862078165515,18.849081304128642,35.81396778222436,41.652176814925994,-51.20297392317662,0.005071684782355985,-0.021684541266702342,0.2751621090462421,0.1511151182760796,3.558227509450335,1.0353969734944666,8.648025798332547,5.256001355759861,0.0015595167484380487,0.30749480998178197,0.04408208110787755,0.0,0,-1.8134718283633222,-0.8206600602760793,-2.60443939190472,0.016410676934951882,10.375272161402913,0.010155117496625395,0.006376063883929758,-14.526659543875065,52848000.0,10164917000.0,-6798294000.0,0.2751621090462421,859849000.0,1056712500.0,287395000.0,59.834317385439334,296.2115030843958,81.75543613878911,1.5041535348392137,0.3038369511745715,1.1008442282322952,0.01161003085416241,-2.246421296481208
EOG,2009-12-31,2009,Q4,3.5282866131003665,0.8023463642374817,1.6606147434227663,-0.33211373154066565,1.374057747410183,20.033346023603904,20.033346023603904,20.033346023603904,5.659140000400745,24279755500.0,26391004500.0,15.15866531227914,13.788562363206202,29.296379664632713,-146.48596363153703,2.4284510407137714,2.4284510407137714,14.987548427985839,22.423102053092894,31.843849809897403,-159.22366785722906,0.01649221714773858,-0.0068265926318739085,0.27975477598513787,0.15437117973413828,1.793821519241161,1.3671192663277743,23.953857985132018,2.0696980972811523,0.0014938783053231321,0.09058080499067246,0.03906779747646323,0.0,0,-1.1999944495591623,-0.5647864511812964,-5.30278599802714,0.011726075070050919,19.017304035400894,0.032688407391216395,0.022100246116339574,-13.420347846995412,493981000.0,9998042000.0,-6281084000.0,0.27975477598513787,719910000.0,881451500.0,250976500.0,41.3197286329082,293.83082868470103,78.54072401961929,2.178136279634747,0.3062986971206335,1.1459023471380048,0.040050541896103256,-1.992728474963432
EOG,2009-09-30,2009,Q3,2.017450457851604,0.008407638207065141,1.6359588835233534,-0.21360530586891618,1.219289879175266,19.070951970665437,19.070951970665437,19.070951970665437,5.665351553890236,20841163200.0,23029652200.0,1241.7280266920877,20.69939305695293,25.526313907145255,-195.50076169749727,2.1897176430539185,2.1897176430539185,22.872995056855597,46.995741546046524,28.206781242880833,-216.0299069453304,0.00020133233254466336,-0.005115069584983625,0.2938722848071076,0.16241521469961634,4.465966855563968,1.5249448237565468,1.1610155556286381,194.5800762631077,0.001750046273808748,8.69232602478551,0.062347978693925304,0.0,0,-1.1305688718831832,-0.9167829535511284,-1.2017268292555914,0.025875776804664852,1.8993913366543498,0.0026396285474385947,0.00024365185587400435,-13.0269932073657,630538000.0,9517740000.0,-5871864000.0,0.2938722848071076,610367000.0,751908500.0,241922000.0,56.43890990605344,257.0673255635974,78.7932127785188,1.5946445484119267,0.3501028370785083,1.1422303625692045,0.0004408609606902479,-1.8495641893922696
EOG,2009-06-30,2009,Q2,1.7345179628294125,-0.03365336191163021,1.3524578275391106,-0.05330429842832797,1.4241419460369773,18.652822039668504,18.652822039668504,18.652822039668504,5.684390448295173,16858219440.0,18948255440.0,-252.27791571890342,19.57892666882685,25.109840254163444,-637.0968383658969,1.8206360371518098,1.8206360371518098,22.00626851977669,44.83138874167172,28.222889664407138,-716.0823642341559,-0.000990970609883104,-0.001569620095062661,0.3020674285346479,0.16655995396108988,4.945004921259843,1.857968090650796,0.0007254846640602959,-40.187896564108705,0.002136939795345314,-2.1564108703459834,0.06824313416697733,0.0,0,-1.0394129098467482,-0.8104627084255185,-0.909253186047451,0.025634146653055204,3.7581815872066935,1.0588181897546722e-06,-0.0009948339616996666,-12.61538554512967,1020656000.0,9259522000.0,-5322954000.0,0.3020674285346479,576329000.0,747243500.0,243120500.0,61.600694045217466,229.738160315654,77.72682314654301,1.461022499745478,0.3917503294896348,1.1579014342361276,-0.0018041968041114865,-1.4057621259674384
EOG,2009-03-31,2009,Q1,2.3351835348863466,0.31999145130266826,1.2214939251827688,-0.5680790835151276,0.17180865434632708,18.378765761660706,18.378765761660706,18.378765761660706,4.2813569847292845,13579987160.0,15599873160.0,21.391196458950283,11.72498846063189,22.415174922710488,-48.197514737876965,1.4897627161186444,1.4897627161186444,13.468962130323629,21.189376375283206,25.74920591114141,-55.3664085009423,0.011687050814560566,-0.020747957761692023,0.2309353798904003,0.13170284819374528,2.7436200442263914,1.4102261596497148,15.314105354810623,3.817270493352656,0.00246620262636537,0.2110200995526432,0.05003069394211235,0.0,0,-1.4650691025173355,-0.7663521868678278,-2.2798096211687287,0.022799857365984895,11.503198616366491,0.0150332339113433,0.009929485077587437,-12.579400058873103,526442000.0,9115537000.0,-5058433000.0,0.2309353798904003,656533000.0,948321500.0,215298500.0,43.7732913489707,220.11318454702496,68.96055910134501,2.0560482711363743,0.40888055018245584,1.3050938271503172,0.01741093256491636,-1.7895730086978963
EOG,2008-12-31,2008,Q4,2.09082154923024,0.9335680038842022,2.0909206773077624,-0.6248427100402582,0.6702494386113977,18.236525662033948,18.236525662033948,18.236525662033948,3.8132042645303557,16455579900.0,18021268900.0,8.914722832587891,15.92197096507643,15.921216123255185,-53.2774080021757,1.8254573605160662,1.8254573605160662,17.436889001987396,26.373682177065877,17.43606233969289,-58.34656096818685,0.02804349666218691,-0.018769681887661704,0.21043880762287678,0.11892502808248093,2.291347202201067,1.1946466574046584,-62.106572964034726,2.239709018098606,0.0020510368036315754,0.07313769849524998,0.0,0.0,0,-1.2988361618982103,-1.2988977411046199,-3.6465671560704633,-0.24479300715810332,19.57200371326302,0.04321781036116192,0.028930190068148995,-12.035204628674313,343535000.0,9014497000.0,-4828278000.0,0.21043880762287678,903461000.0,1231515500.0,167270500.0,65.28921717557769,212.01445493800077,35.512419785170145,1.3784818365637521,0.4244993579627324,2.5343246262701493,0.051192207396596835,-2.7157633873480203
EOG,2008-09-30,2008,Q3,6.513131435738707,3.148398778094718,3.1095162954421314,0.05086888794481196,1.7923509538548683,18.045275232141773,18.045275232141773,18.045275232141773,3.8621411664744794,22110486300.0,23121509300.0,3.5518054694352252,6.867664262778202,14.38487396434113,879.3193994829986,2.4787651850456727,2.4787651850456727,7.181694738261087,16.06487039511304,15.042635997827027,919.5271147345396,0.07038673771729752,0.0011372431912544591,0.2126691151081395,0.11981509190139666,0.702460780165349,1.3510141401357278,197.78280281107897,0.9876500769460607,0.0013480481431111717,0.019152019071057038,0.022019837826051575,0.0,0,-0.9836409000269996,-0.4696124187996544,-4.3665937899822955,-0.12757298790559793,35.753443974718095,0.14376821123864636,0.09829542978374545,-10.440061904472902,643437000.0,8919960000.0,-4436253000.0,0.2126691151081395,1262588000.0,1360212000.0,128271000.0,29.552875503260438,430.56331394726516,47.06672137581618,3.0453889331368345,0.20902849147761596,1.9121790804456544,0.1744721949425782,-3.0586474074973196
EOG,2008-06-30,2008,Q2,3.7831188954148685,0.3614198332089431,2.3141529026186847,-0.1063820293993575,0.21923978648148748,15.061027598403479,15.061027598403479,15.061027598403479,2.8462618035499885,32345523199.999996,33384422199.999996,45.37659113610091,17.340189883935988,28.34730580065273,-616.6455027261982,4.355612495322286,4.355612495322286,17.897135765405952,21.898072791936173,29.25778690392307,-636.4514088534715,0.0055094486769655966,-0.0016216772774292304,0.15445375550872717,0.08063400968184575,0.6814521392396511,0.854013431273108,0.9480952529522799,6.402949395643244,0.000913820432498059,0.1658642245491173,0.033044736912643737,0.0,0,-1.0459701816932563,-0.6398252338703192,-3.785349546772219,-0.2014898008416651,11.066863460702457,0.020706062516018885,0.012527867767535313,-11.224543271570885,-356943000.0,7426171000.0,-4710499000.0,0.15445375550872717,1305509500.0,1294176500.0,104268000.0,70.8286273353526,462.8346174921441,36.89352851056216,1.2706726557593246,0.19445390772121235,2.439452219221431,0.023997023499728192,-2.420534932018042
EOG,2008-03-31,2008,Q1,3.2001324206494726,0.4908853848347798,1.877474228904372,-0.4605121623273438,0.4175080471010064,14.648822474840076,14.648822474840076,14.648822474840076,3.1929735566149207,29451600000.0,30431662000.0,30.55703115921579,18.74922412986363,31.957828808661674,-130.2897185098674,4.095892356061543,4.095892356061543,19.373142765834594,24.464678085572658,33.021290678912344,-134.62537436904714,0.008181423080579663,-0.007675202705455731,0.1648002975027818,0.09150184173517144,0.7878932584721304,0.9798993343451688,0.9958593053154173,3.8246692342170356,0.0007500101862038055,0.0916723385182357,0.03369329463584873,0.0,0,-1.2452828141327312,-0.730590514362908,-3.861466559443336,0.012594083206382412,12.719869861897584,0.02959364356234634,0.018605837786616005,-9.47022521696614,-34672000.0,7190521000.0,-4069792000.0,0.1648002975027818,1044528500.0,1180445500.0,100443500.0,65.48918811039096,433.7554026251575,35.36965120173522,1.3742726486132752,0.2074902109698358,2.5445543549941663,0.03351022825745172,-2.337986391231716
EOG,2007-12-31,2007,Q4,2.4154838471205737,0.7417161561650362,1.534825410906582,-0.5950526929679735,0.11136369236834973,14.354201062894786,14.354201062894786,14.354201062894786,2.4111899657475173,21733560360.0,22864329360.0,15.042816456484726,18.47662945591712,29.07822588996504,-75.00176123461732,3.109194291235569,3.109194291235569,19.437944558788647,25.335082622604233,30.59112832595459,-78.90400574240616,0.016619228235828728,-0.013333020232309511,0.1695256172520713,0.09802375020338894,1.2529615713198232,0.8764518339133207,-48.05111850619338,2.069289441991168,0.0010475504069688468,0.06303243400379296,0.0,0.0,0,-1.3877005741105701,-0.8817604416661778,-3.6749328571327338,0.0040024722152085445,15.477458248587974,0.04493767170054617,0.029878218105243097,-8.796996541895632,-182131000.0,6990094000.0,-3806774000.0,0.1695256172520713,858685500.0,1058327500.0,106080000.0,72.38421692923326,393.09960497683693,34.91132829381838,1.243364973996871,0.2289496068186158,2.577959774046637,0.051672409555579654,-2.1298781038745553
EOG,2007-09-30,2007,Q3,1.935563030317965,0.41892141642640646,1.4872723688425618,-0.3473053892215569,0.6200438628915009,13.608889217449875,13.608889217449875,13.608889217449875,3.315613628709659,17837784360.0,18819282360.0,21.859708386641373,18.924725997676553,24.628979040676004,-105.46913793103448,2.6916230571582225,2.6916230571582225,19.96603137184173,27.844117831567733,25.984152597133626,-111.27242301688662,0.011436566105007,-0.00948144660719511,0.19366430325684594,0.1119179274461756,1.452177901402616,0.9766479594917234,0.9809432646171592,3.5502419082072323,0.0012828386944352542,0.1121699190698176,0.05103202431662538,0.0,0,-1.2335183497638968,-0.9478264098497186,-3.199939825709466,0.04181356192941601,11.325799786624051,0.026295304188453755,0.01778934533294232,-8.01934762162917,-31328000.0,6627148000.0,-3530334000.0,0.19366430325684594,776454500.0,945172000.0,113069000.0,73.64987030072197,348.35406717765557,39.670211485212086,1.221998078645873,0.25835782750916264,2.2687048198255613,0.03078292502295105,-1.8345777580641187
EOG,2007-06-30,2007,Q2,2.0745065309361213,0.6312066505774441,1.4866935003104096,-0.3234406542036863,0.12032792412026626,12.93563009040937,12.93563009040937,12.93563009040937,1.839146147426067,17770164620.0,18595472620.0,14.468320306266346,17.609006988045408,24.57130537825909,-112.94189374535239,2.8239830410026783,2.8239830410026783,18.426830269374683,26.769556783991938,25.712481913916882,-118.18730651650259,0.017279130867162443,-0.008854110435359603,0.14045760814825187,0.08398135964662232,1.188091844813935,0.9182033815207521,41.3771491957848,2.3553197656430647,0.001285750610001946,0.07441060663794198,0.04675509734906139,0.0,0,-1.2175570513600513,-0.8725613188102486,-3.3895873431365002,-0.025912845636732622,13.554104699525977,0.04111010266521113,0.02917572193171893,-7.254144276745592,-94764000.0,6292589000.0,-3167907000.0,0.14045760814825187,779005500.0,925236500.0,119380500.0,69.7040881849315,382.5546460004316,48.05542419804326,1.2911724741484536,0.23526050706988008,1.8728374892519346,0.04879597253213264,-1.8101341545140959
EOG,2007-03-31,2007,Q1,1.8752981302752068,0.4483117278992268,1.4386047297158133,-0.3490152947524952,0.2918484283025008,12.039857803701553,12.039857803701553,12.039857803701553,2.3953423709543875,17318712420.0,17997054420.0,19.89129314503347,19.02097561136335,24.794858005955792,-102.20182478047398,2.9626595746864686,2.9626595746864686,19.76599211866808,26.354945612061996,25.76602682968732,-106.2048816211878,0.012568313089409217,-0.009784561108844835,0.14028209626827678,0.08344908757166841,0.993366253119179,1.0269082951464936,0.9827267982470208,3.208938424290315,0.0008962560046943721,0.07131076368948899,0.048191884512567736,0.0,0,-1.242606803344405,-0.9532457776225527,-3.5521359406078368,0.015607804890906815,11.020263733317128,0.03282167098656769,0.022150222237961408,-6.582417316477388,29560000.0,5845664000.0,-2853084000.0,0.14028209626827678,812439000.0,910608000.0,118026000.0,76.74740199405605,449.1785369223877,59.48976342251993,1.1726781319186588,0.20036576239071469,1.5128653203877154,0.037235633111995486,-1.7876200244683087
EOG,2006-12-31,2006,Q4,1.9274505913331763,0.5014757493458338,1.2380689592453422,-0.5518889178251506,0.45110598525904155,11.57382467105671,11.57382467105671,11.57382467105671,1.531474385207783,15109761060.0,15624948060.0,15.569047975270479,16.202749964344807,25.22476617056619,-56.58747438355754,2.698330144753147,2.698330144753147,16.75520384582802,23.634700938735627,26.084837455446948,-58.51689808850406,0.016057500779565605,-0.017671755293792845,0.1309794807587803,0.07800781947977911,0.7792851935102298,1.0757506701131145,46.59874983375449,2.468851107676455,0.0010872441949786862,0.06770942812982998,0.0,0.0,0,-1.4457658951093897,-0.9286660239795913,-3.7581518673135506,0.07311512713086689,11.427590690674824,0.03807754150055668,0.025805240497928136,-5.975554542786397,95068000.0,5599671000.0,-2452409000.0,0.1309794807587803,752484000.0,845580000.0,115488000.0,81.88367721381213,371.74050049754914,47.09758412265507,1.0991201551072844,0.24210437087038186,1.910926041675837,0.04332843840289903,-1.789957877070493
EOG,2006-09-30,2006,Q3,2.0012483930040386,0.6182769696293264,1.2465658858009765,-0.3310432349087061,1.2317153829300858,11.31455990012856,11.31455990012856,11.31455990012856,2.6985440926621775,15738729660.0,15972315660.0,13.153490101492299,16.25485377713148,26.095692470436862,-98.26511032303985,2.875056589662881,2.875056589662881,16.496099821533328,25.585875920885908,26.482991099556305,-99.72350973365134,0.01900636242328086,-0.010176551949237814,0.15153118254191958,0.09050906184997386,0.37417883167831506,1.2573798539756371,0.9699431629622473,2.016193303380402,0.0010358523433714026,0.05450029418057339,0.043751187712239015,0.0,0,-1.2655641700767348,-0.7883124984508101,-3.532551800102744,-0.02219782535053003,12.54589437521981,0.04702514628514554,0.03263889555675625,-5.2576510576203646,324033000.0,5474233000.0,-2107782000.0,0.15153118254191958,627043500.0,737581500.0,107907500.0,61.024727136022996,416.1235925634983,61.474207907829275,1.4748120020166848,0.21628189703343118,1.4640286237594242,0.054644367530574604,-1.5776091207096825
EOG,2006-06-30,2006,Q2,1.901983750874332,0.6858426491952005,1.2202675352733503,-0.02320653276106832,1.5709171278035536,10.654219764664981,10.654219764664981,10.654219764664981,2.8334464619039537,16753445420.0,16886854420.0,12.63773842319495,18.22833659018505,28.41180232844073,-1493.975871232388,3.254109711063407,3.254109711063407,18.373490264261964,28.01054019489944,28.63804773897043,-1505.8725182807204,0.01978202045558698,-0.0006693548532180075,0.1733582653704183,0.10327479586404181,0.22128799502384408,1.4768451673276262,0.9541745161303857,1.7792237573811844,0.0009717404146949493,0.049122404704647016,0.042005770938147384,0.0,0,-1.0190175777772126,-0.6537774402451125,-3.11452458948416,-0.04288599133053636,12.82225260792261,0.05374425549008357,0.038348875170863016,-4.629852284438337,516193000.0,5148396000.0,-1895051000.0,0.1733582653704183,612615500.0,677244500.0,87534000.0,58.51535435126996,375.3607956808697,54.28757024408479,1.5380578481970133,0.23976931271351432,1.6578380575027938,0.06437286486898056,-1.2434740680344187
EOG,2006-03-31,2006,Q1,2.2489735316318153,0.8848509858243682,1.6314978558216309,0.4100046450285752,1.7031640109821746,9.836179795784636,9.836179795784636,9.836179795784636,3.2675412038918705,17360496000.0,17471911000.0,10.17120412835974,16.007302662152295,22.065612818026175,87.80388328891001,3.659957498482089,3.659957498482089,16.110033230801005,23.208647762609605,22.207223993888913,88.36738502622408,0.024579194050676892,0.011389017917460423,0.19664162112932604,0.11315029375050799,0.14799706171071667,1.559455750450809,0.9773618006046807,1.8438108585047819,0.0006585065311498013,0.026791217392730843,0.033462236384960944,0.0,0,-0.7486943402557555,-0.5431336534702398,-3.3157408866773244,0.00830124587842174,13.993925512647614,0.07500860190710189,0.05176353417708006,-4.49911194933601,597233000.0,4743360000.0,-1835272000.0,0.19664162112932604,695064500.0,676731000.0,69926500.0,52.08681869481511,366.04099023524725,41.62645294451351,1.7278843718086183,0.24587410263030596,2.1620866932853153,0.08995880557242124,-1.2214932107930556
EOG,2005-12-31,2005,Q4,2.5078234674777726,0.9685974998328766,1.8074695835283108,0.7607585734340531,1.3449491109031353,9.01692125142055,9.01692125142055,9.01692125142055,2.099597232435323,17563062720.0,17904318720.0,9.469877840467932,14.63021639114843,20.29909677836928,48.22817813854122,4.069016350144985,4.069016350144985,14.914486236583324,15.676335249062273,20.693514806741454,49.16526726822383,0.026399495770860634,0.020734766242410822,0.22822065791656357,0.127050992349084,0.29879067421751054,1.3337741597776869,37.77207905929447,1.866068809634729,0.000649715837261441,0.024610918439532756,0.0,0.0,0,-0.5791029733684383,-0.41737826592195526,-2.831195542848102,0.03107962331263302,14.018194108268984,0.08823774465678484,0.05980096268437263,-4.57450991042182,391197000.0,4316292000.0,-1873790000.0,0.22822065791656357,696891000.0,594181500.0,59051000.0,57.16249953143157,589.3738074588031,54.826539462272336,1.5744587927004887,0.15270444471913683,1.6415407735505814,0.1074199799272153,-1.0467110100942576
EOG,2005-09-30,2005,Q3,1.9520961461327628,0.7181316431579651,1.0838103315729661,0.1199925630055485,0.7124912260177819,8.04585659134969,8.04585659134969,8.04585659134969,3.290425078548031,17926865600.0,18628576600.0,13.037303242659872,19.184505883171294,34.55401642614691,312.1026758822403,4.654569662633992,4.654569662633992,19.935444675716603,27.601816850989177,35.906563712517375,324.31930569821895,0.01917574481062657,0.003204073778519319,0.2707475486536906,0.14840448794736197,1.0397197231013595,1.4794699828517779,0.980915435409485,1.509208432602884,0.0006334068795606968,0.03303167025927897,0.03218916041072508,0.0,0,-0.8892863820264568,-0.49373478374864227,-2.8068527486433212,0.061656919347848185,11.401957938336038,0.07074177322005581,0.048923134857162535,-4.873954433785681,370754000.0,3851455000.0,-2031086000.0,0.2707475486536906,540963000.0,474173500.0,53537500.0,60.804862779510835,283.6291846025208,30.595707782354214,1.4801447760248367,0.31731572378958955,2.9415890830251246,0.08925484005395364,-0.9638177685674176
EOG,2005-06-30,2005,Q2,1.6451572284807683,0.5235129190940685,1.056792807615466,0.2203108473381126,0.5932814834712825,7.134089115726206,7.134089115726206,7.134089115726206,2.375182579789467,13532713600.0,14367109600.0,13.562225001603487,17.26278771921768,26.873763518585445,128.90876842035073,3.980886633080565,3.980886633080565,18.327171511524078,23.157667584348264,28.53073797674982,136.85698663542232,0.018433553489227764,0.007757424202046218,0.3286138055234096,0.1737953658697096,1.3449236304085725,1.432779626040888,26.873357390889904,2.018656596754538,0.000837969407702532,0.04545891860688859,0.0,0.0,0,-0.7915288164808585,-0.508451074338839,-2.492789062890879,0.07219322281241548,9.16693656060456,0.056347330584261335,0.03880978714327787,-4.997828979399963,261733000.0,3399422000.0,-2161730000.0,0.3286138055234096,445881500.0,420167000.0,50464500.0,51.73274450074242,287.9407782678953,34.188758352622614,1.7397105231621417,0.3125642729084572,2.632444240055185,0.0733818866854424,-0.8364819602773534
EOG,2005-03-31,2005,Q1,1.450013274727868,0.4271154227052631,1.0152827938455833,0.2488042209420421,0.3653394748264803,6.645037991006899,6.645037991006899,6.645037991006899,2.3595238797604647,11565660820.0,12512072820.0,14.264294090368669,16.806742686251372,24.003164584020805,97.94849905571694,3.667398144748199,3.667398144748199,18.182029685129535,24.81756423530532,25.96733103796081,105.96357370912693,0.017526279142604146,0.010209446899550353,0.3550805703374067,0.18306226487764973,1.877198202165177,1.3007869762450093,0.0,2.37706891363226,0.0007677901105870404,0.0438079357483609,0.0,0.0,0,-0.754940965758272,-0.5286010730125146,-2.3772677367072723,0.0668351362191131,7.991211405943562,0.04872590647378077,0.033137497490611456,-5.130287766600785,169279000.0,3153642000.0,-2231320000.0,0.3550805703374067,446065500.0,412691500.0,44389000.0,57.69640895378373,272.7100768864394,33.16391100224536,1.5598891097727112,0.3300208082793998,2.7137933156890504,0.06427584361192551,-0.7664785729035412
EOG,2004-12-31,2004,Q4,1.46930653856964,0.4402377119690659,0.7650454386726968,-0.3532888741259337,0.04467213463815145,6.271609985435777,6.271609985435777,6.271609985435777,2.294550766112204,8378448960.0,9435090960.0,10.13089037749994,12.141782216097072,23.318876367593564,-50.496919961427196,2.844564639929599,2.844564639929599,13.673034253989922,25.67986609038355,26.259719509377984,-56.86530231436837,0.024677001791988,-0.01980318801154337,0.365863115123663,0.18583140352096414,2.8759049786071222,0.9281861551018342,0.0,1.737800778699427,0.0011657288892764229,0.04723948634857682,0.0,0.0,0,-1.4617880929253908,-0.7611306990352887,-3.6441908065915003,-0.014964111348291648,7.881781694698753,0.052703344382743975,0.03565403437845269,-5.268394784134365,-45401000.0,2945424000.0,-2266696000.0,0.365863115123663,400572000.0,381942000.0,35388000.0,58.81834820904542,271.9310143607407,25.64246167859837,1.5301347749537668,0.33096629382850384,3.5098034318255613,0.07019532671696842,-1.1183343127986305
EOG,2004-09-30,2004,Q3,1.2169004607745442,0.366894924666343,0.8365996371719856,0.07660909114137517,0.17440444251390416,5.8042091456507485,5.8042091456507485,5.8042091456507485,2.2633569256713595,7730340240.0,8711404240.0,11.21574522662643,13.526167941068397,19.674883024861035,214.85700658717585,2.835872999568585,2.835872999568585,15.242785323091459,20.171170850757395,22.17183902429092,242.1246905139109,0.02229009262857491,0.004654258271043449,0.38995095953207587,0.1959540957604777,2.271644044327744,1.0634043186099904,0.0,2.2802158899657594,0.0012585474504289088,0.05646219023852359,0.0,0.0,0,-0.9084280129497282,-0.6245297545099824,-2.740159837859002,0.0,6.92203255828284,0.04758521561227148,0.03176457163545974,-4.979899668685217,33251000.0,2725912000.0,-2141006000.0,0.38995095953207587,352916000.0,329419000.0,30496000.0,55.14391699182867,272.61768513145563,24.697674418604652,1.6320929834080589,0.3301326542942444,3.6440677966101696,0.06321187184325833,-0.7599905460306104
EOG,2004-06-30,2004,Q2,1.1148507578100835,0.3113229027047462,0.6333470804550297,-0.019692751830085575,0.14571734199402,5.3225654706670795,5.3225654706670795,5.3225654706670795,2.3323323710348145,6950691360.0,7968674360.0,11.989159703871335,13.391927031854202,23.573172531676477,-758.1469633507853,2.8050383000979444,2.8050383000979444,15.353279270010269,20.502522358413866,27.02564763816914,-869.1835034904014,0.020852170308422385,-0.0013190054809166494,0.43819702808512423,0.21178646396328746,2.619158253316455,1.0876568971513485,0.0,2.034373555406832,0.001386624653694881,0.06649785768989284,0.0,0.0,0,-1.031093143771875,-0.5857643525021146,-2.615845264317181,0.0,6.106007040095262,0.04334437954416858,0.02826954577034449,-4.938917671924941,44360000.0,2477931000.0,-2098611000.0,0.43819702808512423,329614000.0,307996000.0,27005500.0,61.6729958903397,276.0111140970516,26.132236640049136,1.4593096816640518,0.3260738260284476,3.4440220804548307,0.058491136355289956,-0.6530398322851153
EOG,2004-03-31,2004,Q1,1.0037658513807401,0.21802377112616683,0.8588562361374731,0.36052730566520674,0.20692077876595946,5.005765514140318,5.005765514140318,5.005765514140318,2.3833926386468876,5305769660.0,6295874660.0,13.152235580498349,11.426967737767058,13.35497085237913,31.8145111889286,2.2913578288074965,2.2913578288074965,13.559344116126809,18.51847666613722,15.847130192706551,37.75138908210011,0.019008175337939567,0.03143219752966057,0.4689247554692024,0.21913428574830582,2.9122619698921697,1.0219461932887648,10.27608943235629,3.939277959009648,0.0015946791025979064,0.08389438093066146,0.0,0.0,0,-0.5802239181651598,-0.4964593383873191,-2.025677302565094,0.22572794624396966,4.955396773441984,0.03343671973896397,0.020353566349340765,-4.981269104886095,10820000.0,2315557000.0,-2135652000.0,0.4689247554692024,303330000.0,289418000.0,22840000.0,58.84075637491385,265.64247311827955,21.288530465949822,1.5295520578720938,0.3388012426760036,4.227628588265006,0.04355453137193341,-0.4983289304722663
EOG,2003-12-31,2003,Q4,0.9574426781601173,0.16252093948488866,0.6671167201786836,-0.727884850282683,0.00969105535003839,4.849630505339569,4.849630505339569,4.849630505339569,2.449103964542472,5290674560.0,6395103560.0,17.751558716950743,12.05294088433158,17.29832224398314,-15.854156046136005,2.379562729014955,2.379562729014955,14.568993855834224,18.62772692981,20.90934925404366,-19.16371317525149,0.014083270319314443,-0.06307494369867271,0.49873233602338063,0.2334951563640039,3.2169927558394575,0.8310560544280501,7.2384262577038845,4.104804724198094,0.001590723433194878,0.1129512817071534,0.0,0.0,0,-2.0910907016207343,-1.4570079256776922,-5.274052694512019,0.2493114296974847,4.211145495272414,0.02314792497329723,0.01568956931068864,-4.979473851818245,-80505000.0,2223381000.0,-2129620000.0,0.49873233602338063,288964000.0,267295000.0,21355000.0,62.14437536592755,751.0967608464357,58.31008393427119,1.4482404798511352,0.11982477450518629,1.5434723109205364,0.0335120251544832,-1.3950015704613667
EOG,2003-09-30,2003,Q3,0.9438647309276191,0.25611389334822365,0.787935366789977,0.26493028896489146,0.4024067320443917,4.5814873141620716,4.5814873141620716,4.5814873141620716,2.238897710616319,4786364160.0,5612697160.0,10.190778664441018,11.060906990072285,13.249817738899345,39.40659273347,2.2787359833406886,2.2787359833406886,12.970496847904457,20.34839270565203,15.537308050049829,46.20987115205704,0.024531982121477364,0.025376464460238647,0.48124137385994503,0.22837953919307954,2.9958053873762824,1.57652403878755,12.366427840327534,3.0765038026213816,0.0017545677092818612,0.07152164470826698,0.0,0.0,0,-0.6637664710441812,-0.5541102031761291,-2.1711639109726724,0.0,5.138200798966478,0.04062034661522448,0.02652900027157324,-4.197944658686397,204048000.0,2100447000.0,-1767639000.0,0.48124137385994503,289319000.0,239309500.0,19880000.0,57.160756872677524,211.67322540937747,17.446752956096834,1.5745067931915264,0.42518367557323034,5.158553011352703,0.05590191040288091,-0.5230050778250855
EOG,2003-06-30,2003,Q2,0.9283672256124216,0.23777998286443672,0.8013717193264674,0.3973898865206064,0.3299623192460352,4.331546921718452,4.331546921718452,4.331546921718452,2.209311779825497,4785742880.0,5645597880.0,10.997561562996939,11.267093140971008,13.052619337242604,26.321756931420055,2.4148416695091948,2.4148416695091948,13.291453123454987,20.10719572611522,15.397785026592118,31.050990171436116,0.022732311937326645,0.037991384944608644,0.5100514480745826,0.2383822433148655,3.0624343335410917,1.7107607080960634,0.0,3.370223639823147,0.001512617827893002,0.06654043073416,0.0,0.0,0,-0.5041129142233738,-0.43515305329673176,-1.7341045343240733,0.0,4.813937155646212,0.038793577721175684,0.0256561913298954,-4.0876864366770995,229661000.0,1981804000.0,-1705756000.0,0.5100514480745826,337094000.0,224582000.0,18627000.0,64.37222486427437,194.67583834909718,16.31298366294067,1.398118523785072,0.4623069856188827,5.51707779886148,0.05489493411053767,-0.4039818328058611
EOG,2003-03-31,2003,Q1,1.0145726096113679,0.28276761603467715,0.62608038312636,0.3197431550246008,0.014928731855243954,3.9827837835475894,3.9827837835475894,3.9827837835475894,2.281384638240975,4526732120.0,5564107120.0,8.743929148155303,9.7479469742322,15.79669362999979,30.931076536225053,2.483187774554678,2.483187774554678,11.981849097071782,15.239661578660503,19.416765377126065,38.01944065213975,0.02859126552423429,0.0323299448963196,0.5728115715608529,0.2565208793179476,2.841290361455683,1.4947991185969995,0.0,2.2141162835619084,0.001599608681946923,0.055947459918871935,0.0,0.0,0,-0.48929376539806396,-0.3019372149412763,-1.354021612121329,0.1423323240980408,5.033840601592861,0.05105153763511793,0.031794637472347814,-4.268968425284243,163922000.0,1822952000.0,-1752491000.0,0.5728115715608529,340258500.0,212343500.0,18605000.0,71.78324554565461,276.84162558515266,22.720908074071005,1.2537744610998316,0.3250956203199914,3.9611092878240894,0.07099748100882525,-0.3063372281017592
EOG,2002-12-31,2002,Q4,0.7311842139403741,0.0960444036982901,0.4444240233175634,0.07015594052983455,0.0212937096202247,3.6161142871969627,3.6161142871969627,3.6161142871969627,2.476046738914211,4615590320.0,5750874320.0,25.977567707512552,13.649091172547987,22.45603179931789,142.25452505701782,2.7598685238834126,2.7598685238834126,17.006320421337765,32.853878567674414,27.979479904057136,177.24447759354004,0.00962368774531965,0.007029653359702861,0.6847257974342186,0.30024389054448264,6.4857064509494755,1.4285890045630376,0.0,4.6272766158625815,0.0015759630937088886,0.1637587518854544,0.0,0.0,0,-0.8421418806163308,-0.511865649794033,-1.6420616248624444,0.19100073633565076,2.7954283498993036,0.0195156001334293,0.011646284772493803,-4.085977568953737,118441000.0,1672395000.0,-1746819000.0,0.6847257974342186,253457500.0,189394500.0,18515500.0,82.54047628200769,156.02230387527686,14.624748888240243,1.0903741298088239,0.5768406039686824,6.153951817413356,0.02656011289199023,-0.3742680827877289
EOG,2002-09-30,2002,Q3,0.6051430968422692,0.062460539175409314,0.4085330519542298,-0.0007200249089698238,0.016826528052862368,3.601938661661809,3.601938661661809,3.601938661661809,2.3587151123065877,4157731160.0,5240817160.0,35.982718523903486,14.855990338336865,22.005563459299246,-12485.67915915916,2.4958781490888375,2.4958781490888375,18.725965219441953,32.3563156594967,27.737997036096115,-15738.18966966967,0.006947779663560546,-8.00917585060983e-05,0.6548459965218728,0.29539147084572065,6.686871805003334,1.165922569219665,0.0,6.540658427666425,0.0017560057923514225,0.25274344861010145,0.07711465006842487,0.0,0,-1.0017624642743728,-0.6762914077657761,-1.8888012933099154,0.17019748525202863,2.249895151977831,0.01508287169970588,0.007822186935834887,-4.027594468132952,44597000.0,1665839000.0,-1713739000.0,0.6548459965218728,200562000.0,172389500.0,17580500.0,63.28096359368133,200.3501705539542,20.507634020164385,1.4222286591253266,0.4492134933110179,4.388609622714467,0.017340811446964564,-0.4092530768631996
EOG,2002-06-20,2002,Q2,0.6275067610185161,0.08231594045119538,0.32972817681467465,-0.05760906192488141,0.01988560270267935,3.641132481401799,3.641132481401799,3.641132481401799,2.268127305874526,4509113520.0,5535750520.0,29.58114779049019,15.521745111065979,29.539483383230593,-169.0706231721035,2.6749919289534336,2.6749919289534336,19.055743038798223,33.0494541459949,36.26504628325483,-207.56469891263592,0.008451328588418416,-0.005914688082636696,0.6145047474127268,0.2885679677780075,6.129212711717682,1.180778149520395,4.910449866027359,4.005641859976908,0.0016178346292776411,0.19142962107693923,0.07568940768253685,0.0,0,-1.1747168303340387,-0.6172638492545688,-1.830587202417412,0.07835375194059958,2.59687754843478,0.01755269261861613,0.010616230563979588,-3.743296223333938,42254000.0,1685655000.0,-1627955000.0,0.6145047474127268,194930000.0,167439500.0,17680000.0,63.3066784164019,182.27846727213517,18.51648152838586,1.421650957708156,0.49375003721988314,4.8605346465001755,0.02260723576295268,-0.38733723873955606
EOG,2002-03-31,2002,Q1,0.4037385807680651,-0.05247651210113868,0.2628999437156341,-0.11040394856474867,0.011696324197947786,3.5180196562324113,3.5180196562324113,3.5180196562324113,2.112096809109408,4781079000.0,5751338000.0,-49.30777401922363,25.635399966756566,39.36858963802246,-93.74664705882353,2.9419960691988374,2.9419960691988374,30.8377774084063,74.83167440831674,47.35794275550871,-112.77133333333333,-0.005070194405907119,-0.010667048170507117,0.6003652666828296,0.28040107796384733,12.624211197418582,1.017497324568109,0.0,-5.009859329235592,0.0015230871525026045,-0.3004001485087249,0.11105987571245503,0.0,0,-1.419946642073713,-0.9246178345656638,-1.8255769637941985,0.4637619770191364,2.038087712514426,-0.00538187376829953,-0.006966759524222142,-3.681682686063125,4578000.0,1625114000.0,-1588191000.0,0.6003652666828296,190071000.0,193259500.0,18586500.0,89.52467252537492,197.7238275698721,21.674561819043106,1.0053094578423658,0.45518034475736413,4.152333078352092,-0.01491649201225268,-0.37330389228038274
EOG,2001-12-31,2001,Q4,0.5130302873145939,-0.05358408533001417,0.31113862669847525,-0.16422051654392697,0.005428205926079591,3.54969660823566,3.54969660823566,3.54969660823566,1.8496719738616325,4525871040.0,5379328040.0,-45.62921966366899,19.063202001566882,31.432934263985832,-59.55406916153482,2.7551650406711934,2.7551650406711934,22.658006857219878,286.3172258888652,37.36033642393305,-70.7843575977683,-0.005478945330267298,-0.016791463859297237,0.5210788915227864,0.25071996728806073,45.425644028103044,0.8763829150675413,0.0,-5.80654917933621,0.0016072044332929116,-0.29334193652457957,0.09415619971863495,0.0,0,-1.5278049796853839,-0.9265713058202127,-2.2535111712099325,0.5524695258072396,2.06873464559997,-0.007706745994259436,-0.007263233865761542,-3.4865040365798845,-38426000.0,1642686000.0,-1498937000.0,0.5210788915227864,200447000.0,238621000.0,20223500.0,73.77896838434127,162.43990858871499,13.961511903196106,1.2198598322920091,0.5540510382080607,6.446293254199565,-0.015095398633701145,-0.47535914324240225
EOG,2001-09-30,2001,Q3,0.7653338173771739,0.15550556650416625,0.502735712063064,-0.21924376793555303,0.024513363067454965,3.650835839988936,3.650835839988936,3.650835839988936,1.514845451716627,3267142080.0,3956820080.0,11.350076011283575,9.224732841670148,14.043163894261765,-32.201599463822824,1.9338037395900538,1.9338037395900538,11.172029635318433,17.506039482183464,17.007608338706213,-38.999202436452165,0.022026284207388988,-0.031054358064525923,0.414931133063824,0.20701330808696766,3.0513215293815756,0.8789379290872109,0.0,3.2329113572252406,0.0022343686993863457,0.10144101830107138,0.05908146324384762,0.0,0,-1.436101439931227,-0.9433523824582406,-3.232760205513251,0.031128942999446598,3.5740480059733173,0.032452142824369624,0.021250829060803306,-3.284664237803824,-46306000.0,1689490000.0,-1360680000.0,0.414931133063824,225236000.0,242360500.0,21000000.0,52.416057734659994,265.7661983452133,22.252985262771883,1.7170310757744704,0.33864351659610137,4.0444011865035225,0.04259451076952216,-0.721979479998617
EOG,2001-06-30,2001,Q2,1.0055406921550012,0.29387028566496937,0.7370005178216967,0.19656080089755762,0.14735047898506948,3.5785492362129974,3.5785492362129974,3.5785492362129974,1.382631397255545,4120337200.0000005,4692865200.0,7.562860583100226,8.841014659434222,12.062406721606628,45.22773594432614,2.4842469428778493,2.4842469428778493,10.069488979675913,14.2010512650586,13.738499055871891,51.51220829400013,0.03305627510292119,0.022110326310186456,0.3863664591404968,0.19958819218487062,1.732523550576622,0.9713551796078986,0.0,2.5079109858079485,0.0017729131489529544,0.053633179885905595,0.04019972191705575,0.0,0,-0.733296251299091,-0.5374618065092007,-2.5698471324510104,0.03973839604504257,4.864325127088197,0.06170324118606999,0.04242131284530795,-2.784321869336325,-11341000.0,1658586000.0,-1167558000.0,0.3863664591404968,265490000.0,234221000.0,20365500.0,47.15861885471025,226.45624612111004,20.37148683393918,1.908452838224093,0.3974277660324172,4.417939678809244,0.08211995036736111,-0.5404397169241392
EOG,2001-03-31,2001,Q1,1.2829362283475392,0.4623638128952433,1.0293661499862523,0.6653921501237283,0.06626555196590597,3.2914189235633766,3.2914189235633766,3.2914189235633766,1.385222625103107,4799676160.0,5413698160.0,5.574614466171422,8.036252911245318,10.015872389176286,15.494622228535272,3.1323876539052415,3.1323876539052415,9.064329789888037,12.067339598416492,11.297201752061218,17.476847406412624,0.04484615062029518,0.06453852086554106,0.4208588020158275,0.21408069634960894,1.3686784478761724,0.8838507588387539,0.0,2.2263120972650023,0.0013961358592993074,0.03113167663196235,0.030052590778112457,0.0,0,-0.35359041082454973,-0.2837038909808741,-1.8033332978576218,0.0995139413280469,5.851601710217657,0.10291553437840809,0.07145650470739771,-2.6290555402804507,-47166000.0,1532274000.0,-1121091000.0,0.4208588020158275,314678500.0,243716000.0,18465000.0,43.21455061757748,230.4260396449139,19.383690222406056,2.08263186157934,0.3905808568280296,4.643078741320727,0.1404755285281875,-0.36397399986252404
EOG,2000-12-31,2000,Q4,1.131609313738107,0.3462774217349154,0.761646462306643,0.375968393689033,0.04322274556233324,2.9618583721548744,2.9618583721548744,2.9618583721548744,1.8769614529980525,6368783760.0,7207631760.0,9.862034847349285,12.071303968748875,17.934830234267416,36.33284134862228,4.611969339392074,4.611969339392074,13.661244775842167,18.96176347095871,20.29707034781066,41.11832825603286,0.025349738047944024,0.027523308469182505,0.6220468164454985,0.2862555672375671,2.2068326870359947,1.0669474515659574,16.996336996336996,2.199526779686213,0.001068963911564804,0.04216863738564359,0.10098996014003112,0.0,0,-0.5063741351198371,-0.3408226354585034,-1.7417545694940866,0.0,4.803806336095334,0.07752001841902155,0.053801050714555876,-2.8622677142048234,24749000.0,1380925000.0,-1225463000.0,0.6220468164454985,304898000.0,231401500.0,16617500.0,58.43875154710887,336.80183743003164,22.755992942321733,1.5400739683401492,0.2672194447831565,3.9550021055164533,0.11691221463873852,-0.38567806861760995
EOG,2000-09-30,2000,Q3,0.842275433158701,0.24918015520917727,0.609082325176686,0.08878555252531638,0.035741415499023196,2.670549276435185,2.670549276435185,2.670549276435185,2.022003140178683,4543525703.52,5471985703.52,9.751980441460546,11.540167998902758,15.958433857328512,109.47727105970797,3.639700673479001,3.639700673479001,13.898377257400043,18.506507744953144,19.219506527765095,131.8487230379259,0.025635818437158155,0.00913431610342761,0.7571487850910501,0.3290406625882117,3.1400944943672022,1.1428359424611392,0.0,2.4443452355400637,0.0014847500465934812,0.05791701365934906,0.04331316641013527,0.0,0,-0.8542306206315198,-0.6177275890621111,-2.641957069609803,0.0,3.869441480615413,0.05723675283743096,0.04054909794384181,-2.9923423519904278,41387000.0,1248324000.0,-1293030000.0,0.7571487850910501,246407500.0,191906500.0,16988000.0,61.08375622914095,344.09019559427855,26.3687190250269,1.4733867979956365,0.26155932703796136,3.413135083072478,0.09330670563090993,-0.5202967726513696
EOG,2000-06-30,2000,Q2,0.6800156591468346,0.16673764906303237,0.328562455904875,0.11105518558670177,0.02519659972811591,2.5019251286287063,2.5019251286287063,2.5019251286287063,2.0424646808803537,3881948400.0,4819784400.0,12.519667943805874,12.279128998994123,25.413737479541734,75.18784427658338,3.3374300071787504,3.3374300071787504,15.245631393487736,21.08198459459105,31.553416693944353,93.35239976757698,0.019968580726111664,0.013300022225952307,0.8163572352781874,0.35808509418707085,4.10214284776989,1.2869200968523002,0.0,1.97053549543971,0.0015937872847562838,0.07981475031283461,0.05069557350810712,0.0,0,-0.6619967266775777,-0.31985626712047116,-1.1216985213368977,0.0,3.063693043825327,0.04106074174538859,0.029232459845294267,-2.7941134083595753,59249000.0,1163155000.0,-1222840000.0,0.8163572352781874,202818500.0,177238000.0,17159000.0,64.22373490393556,300.32962422837966,31.219609645004695,1.4013510758074097,0.2996707375478927,2.8828035014973508,0.06664374051609631,-0.2175072703181732
EOG,2000-03-31,2000,Q1,0.5342854354265152,0.08803160565914434,0.3709739703124072,0.2044310726743446,0.07077749582014309,2.40584925356667,2.40584925356667,2.40584925356667,1.9964015038997853,2497932400.0,3405494400.0,15.051412388527357,9.919791273683249,14.286716654369918,25.925608718214843,2.2029642930215823,2.2029642930215823,13.523902260804645,20.82654647529003,19.477442048008786,35.345037882719254,0.016609736916819686,0.03857190050459332,0.829811552382229,0.3596672126479071,5.550260829149263,1.0058418004793925,0.0,4.21409978308026,0.0025340957985892656,0.15256688358640635,0.06467894826716651,0.0,0,-0.4489341866703271,-0.31171146843093883,-0.9280106878532075,0.03487905707806984,2.182954966832774,0.02423700622971835,0.015859576428135937,-2.76957902263488,1377000.0,1133896000.0,-1245097000.0,0.829811552382229,164119500.0,180118000.0,17877000.0,64.347392708081,318.6001359824734,28.818085668958222,1.3986580685295964,0.2824857551377537,3.1230388109000824,0.03659065734423616,-0.16654289763806257
EOG,1999-12-31,1999,Q4,0.4176618251716111,0.05574917141240323,0.2990348997727596,0.10181078189084787,0.04533047380418361,2.0647299681131375,2.0647299681131375,2.0647299681131375,1.810111621301735,2401739731.87,3367239731.87,19.686391244836063,10.510895981925602,14.680560708251834,43.1192052400359,2.1261860232560195,2.1261860232560195,14.736278914091903,28.10717639290484,20.582149950305624,60.45313701741472,0.012699127884374313,0.02319152207080817,0.8766820113314447,0.37930902405392986,8.059265442404007,0.9172003659652334,0.0,5.363934426229508,0.0014989134552048369,0.1180327868852459,0.0350109409190372,0.0,0,-0.6595354523227384,-0.4722100656455142,-1.1857142857142857,0.0,1.6093188498662925,0.03888890705193921,0.011682242990654205,-2.441722315778979,-18100000.0,1129600000.0,-1280700000.0,0.8766820113314447,141700000.0,162900000.0,19650000.0,58.371991247264766,173.184855233853,18.84187082405345,1.5418353576248314,0.5196759259259259,4.776595744680851,0.027000708215297452,-0.19722411788191174
EOG,1999-09-30,1999,Q3,0.4145544943060017,0.9375000005712005,0.2255556640095265,0.014988301822351032,0.03436342369026822,1.739556932235546,1.739556932235546,1.739556932235546,2.1298011321223687,2905065598.23,4051465598.23,1.4159999991372587,12.808931209126984,23.541860601539707,354.2762924670732,3.0525014166544078,3.0525014166544078,17.86360493046737,-9.888859160922626,32.83197405372771,494.08117051585367,0.17655367242395492,0.002822655710423923,1.2243353998108648,0.4486197204789589,-2.7981449841347326,0.9542668552569543,0.0,0.2405927081302398,0.0015834410082865911,0.008968609865470852,0.10978835978835978,0.0,0,-0.93354943273906,-0.5079365079365079,-0.5815244825845532,0.0,6.05753902684088,-0.026665215393377073,0.1974743002348593,-2.7694543300164836,-9700000.0,951700000.0,-1443200000.0,1.2243353998108648,153750000.0,156850000.0,27850000.0,53.65079365079365,320.97902097902096,43.00699300699301,1.6775147928994083,0.2803921568627451,2.0926829268292684,0.5389303351896606,-0.21056736218717548
EOG,1999-06-30,1999,Q2,0.2953398057535583,0.03249999999211165,0.13567961161755349,-0.0034708737855653217,0.017985436888838486,2.066747572313896,2.066747572313896,2.066747572313896,1.7983859218935956,3207261539.24,4335761539.24,38.92307693252427,17.13280736773504,37.29373882837209,-1457.8461542,2.448291251328244,2.448291251328244,23.161119333547006,59.393993688219176,50.41583185162791,-1970.8006996545453,0.006422924899626809,-0.0006859434358824747,0.8701526717557252,0.3848413234301148,15.45890410958904,1.1293233082706766,0.0,4.174757281553398,0.0014342453659360835,0.22330097087378642,0.14102564102564102,0.0,0,-1.0255813953488373,-0.47115384615384615,-0.9932432432432432,0.0,1.229353147751985,0.004073686364179144,0.0069547602970965565,-2.3566838586512904,25800000.0,1310000000.0,-1426700000.0,0.8701526717557252,170550000.0,168450000.0,36800000.0,82.83653846153847,328.70454545454544,72.0,1.086477074869414,0.2738021157436217,1.25,0.015725190839694658,-0.1391504854031188
EOG,1999-03-31,1999,Q1,0.2338235294117647,0.0075,0.10161764705882353,-0.03294117647058824,0.01926470588235294,1.8892647058823528,1.8892647058823528,1.8892647058823528,1.7213235294117648,2828800000.0,3986200000.0,138.66666666666669,17.79119496855346,40.93777134587554,-126.28571428571429,2.201914843932436,2.201914843932436,25.07044025157233,87.41666666666667,57.68740955137482,-177.95535714285714,0.0018028846153846153,-0.007918552036199095,0.9111076515918113,0.39144538826834324,25.38157894736842,1.0275270758122743,0.0,13.549019607843137,0.0016261312217194569,0.9019607843137255,0.14842767295597484,0.0,0,-1.3241678726483357,-0.5754716981132075,-1.1158536585365855,-0.0559748427672956,0.5646356516530345,-0.006365685996279127,0.0017055715336766772,-2.2744117647058824,6100000.0,1284700000.0,-1477800000.0,0.9111076515918113,181200000.0,191250000.0,39000000.0,95.54716981132076,322.3170731707317,70.2439024390244,0.9419431279620853,0.2792281498297389,1.28125,0.0039697983965128044,-0.13455882352941176
EOG,1998-12-31,1998,Q4,0.33016949152542374,0.01694915254237288,0.14338983050847456,-0.04338983050847458,0.010677966101694915,2.17,2.17,2.17,1.936949152542373,2542900000.0,3679400000.0,63.57249999999999,13.053901437371664,30.05791962174941,-99.33203125,1.9861751152073732,1.9861751152073732,18.888090349075977,25.58692628650904,43.491725768321515,-143.7265625,0.00393251799126981,-0.010067246057650714,0.892603296102476,0.37864881879328055,7.903337969401947,0.9383092155369384,0.0,8.46,0.0,0.0,0.10985626283367557,0.0,0,-1.3026004728132388,-0.5657084188911704,-0.9331075359864521,0.20790554414784393,0.9096935598768169,0.016163867222428567,0.003313342831582784,-2.655084745762712,-16200000.0,1280300000.0,-1491400000.0,0.892603296102476,188350000.0,210050000.0,37350000.0,89.44558521560575,863.5813953488373,165.7674418604651,1.006198347107438,0.10421715947649055,0.5429292929292929,0.007810669374365383,-0.18677966101694915
EOG,1998-09-30,1998,Q3,0.3242372881355932,0.01,0.21203389830508473,-0.31254237288135595,0.015593220338983051,2.162372881355932,2.162372881355932,2.162372881355932,1.8440677966101695,2584200000.0,3649400000.0,109.5,13.508625196027182,20.65707434052758,-14.01409978308026,2.0255525944505406,2.0255525944505406,19.0768426555149,38.69989395546129,29.171862509992007,-19.790672451193057,0.0022831050228310505,-0.07135670613729587,0.8421382661859226,0.36278912713152117,11.295864262990456,0.8763500931098697,1.411764705882353,21.203389830508474,0.0,0.0,0.08259278619968635,0.0,0,-2.4740207833733012,-1.61787767903816,-4.210884353741497,0.16779926816518556,0.6975198192919573,0.012359013635500743,0.0019922336653722776,-2.5790254237288135,-33200000.0,1275800000.0,-1450400000.0,0.8421382661859226,185750000.0,208350000.0,34950000.0,86.14218504966023,278.8695652173913,45.78260869565218,1.044784270890224,0.32273152478952294,1.9658119658119657,0.004624549302398495,-0.5245762711864407
EOG,1998-06-30,1998,Q2,0.31009398502069435,0.022500000004229324,0.13872180453735372,-0.12045112784219006,0.0230075188013172,2.1989097748494193,2.1989097748494193,2.1989097748494193,1.4394924814735888,2991022221.66,3828322221.66,56.22222221165413,16.317633506055646,36.475880751951216,-42.00873906825842,2.3011403459455297,2.3011403459455297,20.885554946317512,40.38314579810127,46.686856361707314,-53.768570528932585,0.004446640317041369,-0.023804570719800407,0.654639175257732,0.3079623597538907,8.832278481012658,1.024665551839465,0.0,6.165413533834586,0.0015713691345935665,0.3533834586466165,0.08292416803055101,0.0,0,-1.8682926829268294,-0.8357883251500273,-2.463022508038585,0.14402618657937807,1.055082022274461,0.009053201618412944,0.004813608396670286,-2.1838533838691454,5900000.0,1299800000.0,-1218100000.0,0.654639175257732,212550000.0,204200000.0,34600000.0,92.50409165302781,303.84359400998335,52.113144758735444,0.9729299363057324,0.29620502710694924,1.7270114942528736,0.010232343437451916,-0.2591729323795438
EOG,1998-03-31,1998,Q1,0.31449999982527777,0.04249999997638889,0.17613888879103395,-0.008814814809917696,0.0080277777733179,2.0453518507155453,2.0453518507155453,2.0453518507155453,1.257999999301111,3640235296.1400003,4434335296.14,33.70588237166667,18.219395876576577,32.53114652493298,-650.0420171678572,2.8014739850238572,2.8014739850238572,22.193870351051054,44.12273926507463,39.62766127024129,-791.8455885964287,0.0074171029627205735,-0.0015383620959716746,0.6150531014314299,0.2918066306411567,7.901492537313433,1.1550040683482505,0.0,4.144444444444445,0.0012636545788338755,0.17037037037037037,0.08308308308308308,0.0,0,-1.0500446827524577,-0.5880880880880881,-1.9168026101141924,0.09759759759759759,1.3985234020781157,0.017428032061901452,0.009858332116255294,-1.95118286928638,38100000.0,1299400000.0,-1155500000.0,0.6150531014314299,234400000.0,220600000.0,33200000.0,106.62162162162163,267.26878612716763,44.73988439306358,0.844106463878327,0.3367396593673966,2.011627906976744,0.020778820994305065,-0.18495370360095165
EOG,1997-12-31,1997,Q4,0.3814102564102564,0.06923076923076923,0.2923076923076923,0.007371794871794872,0.014903846153846155,2.0528846153846154,2.0528846153846154,2.0528846153846154,1.1879807692307693,3307200000.0,4039200000.0,19.138888888888886,13.895798319327731,18.131578947368418,718.9565217391304,2.5817330210772833,2.5817330210772833,16.97142857142857,26.52133946158897,22.144736842105264,878.0869565217391,0.013062409288824385,0.0013909046927914853,0.578688524590164,0.27219651905706105,4.806303348653972,0.9690721649484536,0.0,4.222222222222222,0.0014211417513304307,0.1087962962962963,0.05756302521008403,0.0,0,-0.9747807017543859,-0.7470588235294118,-2.3962264150943398,0.27899159663865547,1.7882288930571772,0.0259068829361134,0.015862524785194978,-1.9920272435897435,-9000000.0,1281000000.0,-1160400000.0,0.578688524590164,227750000.0,216250000.0,32050000.0,87.76890756302521,361.3798977853492,49.06303236797274,1.0254200775527789,0.24904539669070852,1.834375,0.03372365339578454,-0.2849358974358974
EOG,1997-09-30,1997,Q3,0.3094551282051282,0.05,0.16939102564102565,-0.07307692307692308,0.009775641025641026,2.0439102564102565,2.0439102564102565,2.0439102564102565,1.0875,3469439999.9999995,4141939999.9999995,27.799999999999997,17.967063697566026,32.823462630085146,-76.08421052631577,2.7202759918456954,2.7202759918456954,21.449715173485238,29.107097680955725,39.18580889309366,-90.83201754385964,0.008992805755395685,-0.013143331488655232,0.5320683707072291,0.25982081323225364,4.7259311314125085,1.1882504288164666,0.0,3.3878205128205128,0.0013546854823833243,0.15064102564102563,0.07716209218021751,0.0,0,-1.4314096499526963,-0.783531848783014,-1.6147278548559232,-0.05696530295183842,1.5163769447144528,0.0190049179918616,0.011945784516425454,-1.8376602564102564,43900000.0,1275400000.0,-1059300000.0,0.5320683707072291,215250000.0,194500000.0,30800000.0,104.12221646815122,400.7239819004525,65.36199095022624,0.8643688451208594,0.22459349593495934,1.3769470404984423,0.024462913595734673,-0.24246794871794872
EOG,1997-06-30,1997,Q2,0.27934959349593497,0.04,0.17479674796747968,-0.08682926829268292,0.026829268292682926,2.040650406504065,2.040650406504065,2.040650406504065,1.0302439024390244,2785950000.0,3403050000.0,28.3125,16.2162398137369,25.91581395348837,-52.17134831460674,2.2198804780876498,2.2198804780876498,19.808207217694996,39.61641443538999,31.656279069767443,-63.72752808988764,0.008830022075055188,-0.019167608894631993,0.5048605577689244,0.24985212350644742,7.183934807916182,1.2328767123287672,0.0,4.387755102040816,0.001687036737917048,0.1910569105691057,0.07043073341094296,0.0,0,-1.4967441860465116,-0.9365541327124564,-2.759862778730703,0.0960419091967404,1.3552067612927772,0.015457672877184485,0.009700697977049567,-1.779390243902439,51000000.0,1255000000.0,-1010900000.0,0.5048605577689244,215650000.0,210550000.0,28850000.0,108.49243306169964,286.3907284768212,43.95695364238411,0.8295509415741188,0.3142559833506764,2.047457627118644,0.019601593625498008,-0.2616260162601626
EOG,1997-03-31,1997,Q1,0.29334415584415585,0.0375,0.21964285714285714,-0.001461038961038961,0.005844155844155844,2.029220779220779,2.029220779220779,2.029220779220779,0.8410714285714286,3197040000.0000005,3711540000.0000005,34.6,17.692529053680136,23.62926829268293,-3552.2666666666673,2.5576320000000003,2.5576320000000003,20.539789706696183,40.386724700761704,27.431929046563198,-4123.933333333334,0.00722543352601156,-0.0002815103971173335,0.41448,0.20972312176165803,5.598476605005441,1.0300864986837157,0.0,5.857142857142857,0.0015013887846257788,0.2077922077922078,0.0752628666297731,0.0,0,-1.0066518847006651,-0.7537354731599336,-2.6192307692307693,0.1040398450470393,1.3084934208728496,0.0144309040785818,0.009350712435233161,-1.6794642857142856,8000000.0,1250000000.0,-946500000.0,0.41448,250750000.0,253250000.0,24450000.0,111.66574432761483,363.9752650176679,44.840989399293285,0.8059768064228368,0.2472695500218436,2.00709219858156,0.01848,-0.2211038961038961
EOG,1996-12-31,1996,Q4,0.32531847133757963,0.05589171974522293,0.12818471337579618,-0.22085987261146497,0.012101910828025478,2.0144904458598725,2.0144904458598725,2.0144904458598725,0.7421974522292993,3962679999.9999995,4421180000.0,28.224216524216523,19.39637787567303,49.225838509316766,-28.570151405912036,3.132305746581298,3.132305746581298,21.640626529613314,34.11404320987654,54.92149068322981,-31.87584715212689,0.008857641797975109,-0.03500156459769651,0.36842937317208124,0.18959485844451676,3.5378086419753085,1.0267800882167613,0.0,2.2934472934472936,0.0012113014424581345,0.13675213675213677,0.07293196279980421,0.0,0,-2.7229813664596274,-1.0729319627998042,-3.1494252873563218,0.3720019579050416,1.5916501019891767,0.023159766853485156,0.01427757891311422,-1.540406050955414,8500000.0,1265100000.0,-867400000.0,0.36842937317208124,231550000.0,227350000.0,20050000.0,122.15859030837004,527.0886075949368,39.30379746835443,0.7367472051929318,0.1707492795389049,2.289855072463768,0.02774484230495613,-0.3490445859872611
EOG,1996-09-30,1996,Q3,0.2710191082802548,0.05,0.15971337579617834,-0.06751592356687898,0.015445859872611465,1.9697452229299364,1.9697452229299364,1.9697452229299364,0.4810509554140127,3906160000.0,4197160000.0,31.099999999999998,22.950411280846062,38.944765702891324,-92.12641509433962,3.157768795472918,3.157768795472918,24.660164512338426,39.18916900093371,41.84606181455633,-98.98962264150943,0.008038585209003217,-0.0108546500911381,0.243088116410671,0.13513999370814794,2.7170868347338937,1.0742115027829313,33.07142857142857,3.194267515923567,0.0012288283122043131,0.15286624203821655,0.07638072855464159,0.0,0,-1.4227318045862414,-0.8384253819036428,-2.4023569023569022,-0.04171562867215041,1.4886112238580558,0.021784585212998406,0.014111725315716148,-1.3206210191082803,16000000.0,1237000000.0,-756500000.0,0.243088116410671,189700000.0,163150000.0,17600000.0,98.2491186839013,384.0722891566265,42.0722891566265,0.9160387513455328,0.23433088650479955,2.1391752577319587,0.0253839935327405,-0.22722929936305733
EOG,1996-06-30,1996,Q2,0.3105567225259681,0.07499999996060924,0.15283613437351043,-0.015913865537860363,0.060031512573512864,1.913130251096045,1.913130251096045,1.913130251096045,0.4547268905174754,4620373335.76,4870873335.76,24.266666679411767,23.441772378285137,47.632714801649485,-457.4627065108911,3.805281943468951,3.805281943468951,24.71270084099442,33.96703860362622,50.21518902845361,-482.2646867089109,0.010302197796786984,-0.002185970540914885,0.23768736616702354,0.13177480480343362,1.7468619246861925,1.4768211920529801,0.0,2.03781512605042,0.0010388770887516286,0.10084033613445378,0.07255200405885337,0.0,0,-1.1041237113402063,-0.54337899543379,-1.5343839541547277,0.014205986808726534,1.796776919105147,0.03311394487865076,0.021734167389616914,-1.2363970581741612,86400000.0,1214200000.0,-708300000.0,0.23768736616702354,187200000.0,132350000.0,14750000.0,88.40182648401826,344.3076923076923,36.46153846153846,1.0180785123966942,0.2613941018766756,2.4683544303797467,0.03920276725415912,-0.1687499999113708
EOG,1996-03-31,1996,Q1,0.24555984555984556,0.04,0.13482625482625482,0.026254826254826256,0.040926640926640924,1.8152895752895752,1.8152895752895752,1.8152895752895752,0.49173745173745176,4331775000.0,4623675000.0,41.8125,27.243867924528303,49.619415807560145,254.81029411764706,3.6853624298111285,3.6853624298111285,29.079716981132076,54.39617647058824,52.963058419243985,271.9808823529412,0.005979073243647235,0.003924488229420965,0.2708865067211162,0.1476740410927137,3.4341176470588235,1.6100981767180926,0.0,3.370656370656371,0.0011080907941894487,0.18532818532818532,0.08930817610062892,0.0,0,-0.8052691867124857,-0.4421383647798742,-1.339047619047619,0.08867924528301886,1.2781864565706436,0.020323319292391454,0.012012429850192477,-1.2536679536679536,87000000.0,1175400000.0,-751100000.0,0.2708865067211162,174650000.0,124600000.0,12700000.0,102.33962264150944,213.0122950819672,25.26639344262295,0.879424778761062,0.4225108225108225,3.562043795620438,0.022035051897226477,-0.10857142857142857
EOG,1995-12-31,1995,Q4,0.24881818164853306,0.04995454542048554,0.16895454533934917,0.01049999999284091,0.03659090906596074,1.8513409078286311,1.8513409078286311,1.8513409078286311,0.4599318178682283,3771428574.0,4037528574.0,30.027297563694265,24.113993439897698,35.51251011299435,571.4285718181818,3.240894194379995,3.240894194379995,25.815400089514068,41.32577864892528,38.01815983050847,611.7467536363637,0.008325757570080923,0.0017499999988068182,0.24843172638996305,0.13463419177571834,2.7236438075742067,1.286473715298287,0.0,3.3821656050955413,0.001272727271859504,0.15286624203821655,0.09846547314578005,0.0,0,-0.9378531073446328,-0.6368286445012787,-1.7142857142857142,0.11125319693094629,1.442520399526775,0.022425971315955088,0.014623014949005728,-1.317869317283271,48500000.0,1163700000.0,-765800000.0,0.24843172638996305,165650000.0,126350000.0,11650000.0,96.96291560102301,348.7826086956522,30.521739130434785,0.9281899109792285,0.2580403889304413,2.948717948717949,0.026982899372690557,-0.15845454534650827
EOG,1995-09-30,1995,Q3,0.24340909074313016,0.05249999996420455,0.09481818175353306,-0.12695454536798553,0.013522727263507232,1.8141136351267406,1.8443409078334039,1.8141136351267406,0.4198409088046539,3419428573.76,3674828573.76,25.904761922424242,22.349206364444445,57.37296264697987,-42.8499821273183,2.9987096148031225,2.9987096148031225,24.01848741019608,38.60114048067227,61.65819754630873,-46.05048338045113,0.0096507352875376,-0.023337232604409106,0.23143032535297728,0.12507109004739336,2.6827731092436973,1.2236421725239617,0.0,1.8115501519756838,0.0014037433145509236,0.14545454545454545,0.0915032679738562,0.0,0,-2.338926174496644,-0.9111111111111111,-2.4804270462633453,0.1065359477124183,1.4638721699767299,0.026737580244723485,0.015639810426540283,-1.2954772718439929,35000000.0,1159300000.0,-759200000.0,0.23143032535297728,158500000.0,114700000.0,13500000.0,95.76470588235294,290.2439024390244,28.29268292682927,0.9398034398034398,0.3100840336134454,3.1810344827586206,0.028939752696658775,-0.2217727271215186
EOG,1995-06-30,1995,Q2,0.2869022870514045,0.07500000003898129,0.11382536388452462,-0.060966735998423456,0.03180873182526441,1.763201664118088,1.763201664118088,1.763201664118088,0.33633056150536933,3488853331.5200005,3684153331.5200005,18.133333323908527,18.961159410434785,47.792511390684936,-89.22898546086958,3.08529654361514,3.08529654361514,20.022572453913046,30.29731358157895,50.46785385643836,-94.22387037135552,0.01378676471304803,-0.011207120587945487,0.1907499115670322,0.1053788656016415,1.6060855263157894,1.3789035392088826,0.0,1.5145228215767634,0.001375810200054689,0.0997920997920998,0.0782608695652174,0.0,0,-1.5356164383561643,-0.6092391304347826,-2.3065843621399176,-0.1559782608695652,1.7249355958254617,0.036824471944040676,0.023498949631149544,-1.204287942413871,54600000.0,1130800000.0,-717400000.0,0.1907499115670322,150200000.0,110350000.0,15750000.0,75.42391304347827,250.2770780856423,34.91183879093199,1.1932555123216602,0.3596014492753623,2.5779220779220777,0.04253625751680226,-0.17479209988294808
EOG,1995-03-31,1995,Q1,0.24937499989468961,0.04749999997994088,0.15501689182642867,0.004332770268440553,0.024552364854496467,1.7428969587234389,1.7428969587234389,1.7428969587234389,0.32094594581041136,3838652633.2000003,4023352633.2000003,32.42105264527027,24.7017543963964,39.73760489855073,1421.7231974814815,3.5343454867875885,3.5343454867875885,25.890300084942087,41.69277340103627,41.64961318012423,1490.130604888889,0.00771103895778261,0.0007033717968247651,0.1841451063437989,0.10043185698503565,1.9139896373056995,1.3146853146853146,0.0,3.2635135135135136,0.0012504387499106934,0.16216216216216217,0.08236808236808237,0.0,0,-0.9720496894409938,-0.6042471042471043,-1.768361581920904,0.0933075933075933,1.3648154175012288,0.024938116314753955,0.014863914833785276,-1.2393327697469034,45000000.0,1086100000.0,-717300000.0,0.1841451063437989,136200000.0,120750000.0,15900000.0,84.67181467181467,269.0243902439024,39.26829268292683,1.0629274965800273,0.3345421577515866,2.2919254658385095,0.02725347573888224,-0.15068412155798813
