symbol,date,calendarYear,period,revenuePerShare,netIncomePerShare,operatingCashFlowPerShare,freeCashFlowPerShare,cashPerShare,bookValuePerShare,tangibleBookValuePerShare,shareholdersEquityPerShare,interestDebtPerShare,marketCap,enterpriseValue,peRatio,priceToSalesRatio,pocfratio,pfcfRatio,pbRatio,ptbRatio,evToSales,enterpriseValueOverEBITDA,evToOperatingCashFlow,evToFreeCashFlow,earningsYield,freeCashFlowYield,debtToEquity,debtToAssets,netDebtToEBITDA,currentRatio,interestCoverage,incomeQuality,dividendYield,payoutRatio,salesGeneralAndAdministrativeToRevenue,researchAndDdevelopementToRevenue,intangiblesToTotalAssets,capexToOperatingCashFlow,capexToRevenue,capexToDepreciation,stockBasedCompensationToRevenue,grahamNumber,roic,returnOnTangibleAssets,grahamNetNet,workingCapital,tangibleAssetValue,netCurrentAssetValue,investedCapital,averageReceivables,averagePayables,averageInventory,daysSalesOutstanding,daysPayablesOutstanding,daysOfInventoryOnHand,receivablesTurnover,payablesTurnover,inventoryTurnover,roe,capexPerShare
PPG,2022-12-31,2022,FY,74.35551811288964,4.321819713563606,4.056444818871103,1.8744734625105308,4.860994102780118,27.767481044650378,-7.510530749789385,27.767481044650378,32.86436394271272,29850676000.0,36386676000.0,29.094226120857698,1.691064808520281,30.99758670820353,67.08017078651686,4.528318567961165,4.528318567961165,2.061334466349422,15.288519327731093,37.78471028037383,81.76781123595505,0.03437108090952447,0.014907535092337608,1.1582220873786409,0.3680582337061319,2.746218487394958,1.5193814869730988,10.934131736526947,0.9119318181818182,0.019095044949735813,0.5555555555555556,0.21765239066394743,0.025379560389757534,0.40937138449672195,-0.5379023883696781,-0.029345116700657148,-0.9350180505415162,0.0019827781554498073,51.96283341901603,0.09689626390877282,0.08374142997061704,-39.03854254422915,2452000000,-1783000000,-6862000000,1.1582220873786409,3227500000.0,3008500000.0,2221500000.0,68.29792658055744,95.88815789473684,74.73684210526316,5.3442325158946415,3.806518010291595,4.883802816901408,0.15564320388349515,-2.181971356360573
PPG,2021-12-31,2021,FY,70.71548821548822,6.056397306397306,6.574074074074074,5.012626262626263,4.511784511784512,26.456228956228955,-11.026936026936028,26.456228956228955,31.931818181818183,40971744000.0,40158744000.0,28.472372480889508,2.4385039876205212,26.23030985915493,34.40112846347607,6.517935730194083,6.517935730194083,2.3901168908463277,15.754705374656728,25.709823303457107,33.71850881612091,0.03512176586869233,0.029068813863525066,1.1877187400572702,0.3496791719357407,-0.3189486072969792,1.4204425711275026,16.429752066115704,1.083969465648855,0.013082186591813129,0.3724808895066018,0.22794905368408522,0.026127841923580527,0.4229778464708913,-0.23751600512163892,-0.022080704678014523,-0.661319073083779,0.0033924532793715035,60.043003424450276,0.11319216258975295,0.11680194805194805,-43.84890572390572,1995000000,-2620000000,-8200000000,1.1877187400572702,2939000000.0,2840500000.0,1953000000.0,68.47280085704082,110.07485903169356,77.03820727202022,5.3305837563451774,3.3159252095422307,4.7379087977890375,0.22892141266306076,-1.5614478114478114
PPG,2020-12-31,2020,FY,58.420608108108105,4.472128378378378,8.994932432432432,7.711148648648648,8.116554054054054,24.024493243243242,-6.91722972972973,24.024493243243242,28.47972972972973,34151296000.0,32505296000.0,32.248627006610015,2.4686494144860487,16.033472300469484,18.702790799561885,6.003040253120057,6.003040253120057,2.349667196761602,14.281764499121266,15.26070234741784,17.801366922234394,0.031009072100806948,0.05346795623802974,1.1611882580418351,0.33779914092861524,-0.7231985940246046,1.4115448504983388,12.804347826086957,1.988795518207283,0.014523606951841595,0.4683663833805477,0.24497614572791673,0.027396270059274253,0.3811106565759869,-0.14272300469483568,-0.021974844585803094,-0.5972495088408645,0.0031805696111030794,49.16720355286157,0.11138029362690138,0.08749896719821532,-37.614020270270274,1982000000,-1638000000,-6943000000,1.1611882580418351,2741000000.0,2478500000.0,1722500000.0,71.92352175798756,121.04088980326603,81.42921435000642,5.07483492296405,3.015509887553315,4.482420749279539,0.18614870803304623,-1.2837837837837838
PPG,2019-12-31,2019,FY,63.9341494301393,5.246939636977627,8.780075981426762,7.036724356268468,5.373575348248206,22.304769945124526,-5.05698607007176,22.304769945124526,22.60025327142254,31623781000.000004,35629781000.0,25.4414971842317,2.0879295523570582,15.203740865384617,18.970474505098984,5.984818508705526,5.984818508705526,2.3524218275452267,14.366847177419356,17.129702403846153,21.373593881223755,0.039305862888438285,0.052713494316191975,0.9882664647993944,0.3647412167353496,1.6153225806451612,1.4102857142857144,14.916666666666666,1.6390858944050433,0.014798989406105486,0.37650844730490746,0.23795061402350456,0.028522382147101545,0.46106027799119925,-0.1985576923076923,-0.02726792552489106,-0.8082191780821918,0.0025749372771688896,51.314862215265435,0.14090588781174088,0.1610938310005184,-19.91979738286197,1795000000,-1198000000,-2744000000,0.9882664647993944,2800500000.0,2419000000.0,1746500000.0,66.4162155024429,100.30856350398705,72.13105281405292,5.495645863570392,3.638772077375946,5.060233918128655,0.23523845571536714,-1.7433516251582946
PPG,2018-12-31,2018,FY,63.0340303403034,5.498154981549815,6.014760147601476,4.329643296432964,3.9483394833948338,18.98318983189832,-5.3710537105371055,18.98318983189832,21.04961049610496,24933897000.0,29047897000.0,18.593510067114096,1.6218223624300767,16.99652147239264,23.611644886363635,5.385290928725702,5.385290928725702,1.889417002731885,12.235845408593091,19.80088411724608,27.50747821969697,0.0537822066081367,0.0423519837272128,1.0833693304535637,0.31320636902903526,1.7329401853411963,1.365948670944088,15.864406779661017,1.094776119402985,0.01816803847388958,0.3378076062639821,0.23240535969819176,0.02868479250682971,0.37727130814861065,-0.28016359918200406,-0.02673344607779368,-0.8269617706237424,0.00240666059581111,48.460104149176615,0.15360538000932966,0.1344630502356362,-29.908774087740877,1597000000,-1310000000,-5322000000,1.0833693304535637,2874000000.0,2520500000.0,1756500000.0,67.54423051905815,99.75558271303188,72.30252194200645,5.403866432337434,3.6589430894308945,5.04823331463825,0.2896328293736501,-1.6851168511685117
PPG,2017-12-31,2017,FY,57.59468957438501,6.356891839125342,6.122608356110894,4.71690745802421,5.82194455290902,21.702459976571653,-1.2260835611089418,21.702459976571653,16.598984771573605,29917602000.0,32627602000.0,18.376905405405402,2.028312,19.08010331632653,24.766226821192053,5.382799928031665,5.382799928031665,2.212040813559322,12.680762534006996,20.808419642857142,27.00960430463576,0.054416125998333696,0.04037756769409527,0.7459517812162648,0.3024290612006711,1.0532452390205986,1.6568426447975397,19.18095238095238,1.1264367816091954,0.014506510247713036,0.2665847665847666,0.24610169491525424,0.03071186440677966,0.43672040265519,-0.22959183673469388,-0.02440677966101695,-0.782608695652174,0.002847457627118644,55.71448905863973,0.14769887884570537,0.21082621082621084,-13.677274502147599,2563000000,-314000000,-1571000000,0.7459517812162648,2797500000.0,2378000000.0,1638000000.0,71.83694915254237,114.82996099463675,76.96855192588981,5.080950740613159,3.178612940720651,4.742196531791907,0.29291111910759265,-1.405700898086685
PPG,2016-12-31,2016,FY,55.538403614457835,3.3019578313253013,4.988704819277109,3.4751506024096384,7.014307228915663,18.170180722891565,-2.4171686746987953,18.170180722891565,17.09713855421687,25168256000.0,27764256000.0,28.69812542759407,1.7062067656430073,18.994910188679246,27.267882990249188,5.2151380024865315,5.2151380024865315,1.8821948342485255,17.527939393939395,20.95415547169811,30.080450704225353,0.03484548154627798,0.03667318069237694,0.9150435142975549,0.34011090573012936,1.6388888888888888,1.4990662931839402,9.16,2.2610921501706485,0.01644929231489063,0.47206385404789053,0.3423496712087316,0.03159107857094434,0.42783425754775106,-0.30339622641509434,-0.02725238966849705,-0.8701298701298701,0.0026438885499288182,36.7414797882084,0.0877872872567719,0.11805088167990309,-12.86144578313253,2138000000,-642000000,-1649000000,0.9150435142975549,2740000000.0,2174500000.0,1625500000.0,66.61107721510406,98.45901029393526,69.98511720203398,5.479569093610698,3.7071264367816092,5.215394566623544,0.18172399502693742,-1.5135542168674698
PPG,2015-12-31,2015,FY,56.48489314664702,5.180545320560059,6.768607221812823,5.014738393515107,5.361090641120118,18.360353721444362,9.509948415622697,18.360353721444362,16.400147383935153,26819748000.0,29833748000.0,19.075211948790894,1.7494943248532289,14.599753946652148,19.70591329904482,5.3822492474413,5.3822492474413,1.9461022831050228,11.287835035944003,16.240472509526402,21.920461425422484,0.052424057079134376,0.05074618896493733,0.8679510335139474,0.25327945654720074,1.1403707907680667,1.4229266174554929,16.80952380952381,1.288218793828892,0.014280521949721526,0.2724039829302987,0.23998695368558381,0.031702544031311154,0.3424104005621926,-0.25911812738160045,-0.031050228310502283,-0.9616161616161616,0.0036529680365296802,46.261479683401404,0.172412793127117,0.12521150592216582,-15.657700810611644,1948000000,2581000000,-2094000000,0.8679510335139474,2801500000.0,2178500000.0,1765000000.0,66.38095238095238,92.3652659760214,72.43918053777209,5.498565279770445,3.951701931922723,5.038709677419355,0.28215934176199076,-1.7538688282977155
PPG,2014-12-31,2014,FY,55.53145336225597,7.5994215473608095,5.524222704266088,3.4020245842371657,4.276934201012292,18.727404193781634,-3.423716558206797,18.727404193781634,15.227765726681127,31966662000.0,35305662000.0,15.2077364414843,2.081162890625,20.920590314136124,33.970947927736454,6.17117027027027,6.17117027027027,2.298545703125,16.982040404040404,23.105799738219897,37.51930074388948,0.06575600542840539,0.029436917748872245,0.777027027027027,0.2944403803950256,1.606060606060606,1.410203661797984,10.122994652406417,1.320656871218669,0.011293015204402637,0.17174119885823025,0.24466145833333333,0.03203125,0.45442574981711775,-0.3841623036649215,-0.03821614583333333,-1.2331932773109244,0.004752604166666666,56.5874754386347,0.16803390751157715,0.28184499865915796,-15.178054953000723,1994000000,-947000000,-1550000000,0.777027027027027,2775500000.0,2099000000.0,1824500000.0,66.89290364583333,90.63758389261746,75.77351837106131,5.4564831261101245,4.027027027027027,4.816986301369863,0.4057915057915058,-2.122198120028923
PPG,2013-12-31,2013,FY,52.67782426778243,11.265690376569038,6.2447698744769875,4.449093444909344,6.0843793584379355,17.196652719665273,13.978382147838214,17.196652719665273,12.559274755927476,27197244000.0,29487244000.0,8.41759331476323,1.8001882446386022,15.185507537688443,21.314454545454545,5.514445255474452,5.514445255474452,1.951763568970082,13.059009743135519,16.464122836404243,23.10912539184953,0.11879880181977263,0.046916518453119734,0.6905920519059205,0.2147134842085356,1.0141718334809566,1.7446191051995164,9.479591836734693,1.5493079584775087,0.012685108829409333,0.10677808727948004,0.2448371723590151,0.032300767805136354,0.2740339154006178,-0.28754885538805136,-0.03408790045009267,-1.0842105263157895,0.005361397934868944,66.02252429054413,0.1730003394204014,0.2805661688086141,-9.755927475592747,3079000000,4009000000,-293000000,0.6905920519059205,2774500000.0,1923500000.0,1755000000.0,66.10007942811755,85.1638490041686,77.09124594719778,5.521929824561403,4.285856079404467,4.734649122807017,0.6551094890510949,-1.795676429567643
PPG,2012-12-31,2012,FY,49.54367666232073,3.0671447196870925,5.82464146023468,4.485006518904824,7.79986962190352,13.243155149934811,1.5514993481095176,13.243155149934811,13.754889178617992,20764224000.000004,23381224000.000004,22.066125398512224,1.366067368421053,11.619599328483494,15.090279069767444,5.110564607432932,5.110564607432932,1.5382384210526319,10.232483150984685,13.084064913262454,16.992168604651166,0.045318332146676896,0.06626782681596961,0.9869554516367216,0.33012266403227136,1.1452954048140043,1.728068207314337,9.176190476190476,1.6795112781954886,0.017241193314038606,0.3804463336875664,0.2194078947368421,0.02993421052631579,0.3166213879970363,-0.22999440402909904,-0.027039473684210526,-0.8838709677419355,0.0,30.231112306325883,0.1811508501330495,0.11335983616431755,-8.08099739243807,3245000000,476000000,-123000000,0.9869554516367216,2821500000.0,1722000000.0,1646500000.0,67.54901315789473,73.73249531370602,67.85643400595434,5.40348382509776,4.95032751091703,5.379003558718861,0.23160226433669703,-1.3396349413298565
PPG,2011-12-31,2011,FY,47.31404958677686,3.480610298792117,4.564526382708201,3.3248569612205974,4.710743801652892,10.327399872854418,-1.077558804831532,10.327399872854418,12.371265098537826,13131404000.0,15356404000.0,11.9921497716895,0.8821903930131004,9.144431754874653,12.553923518164435,4.041675592489997,4.041675592489997,1.0316697346321801,7.037765352887259,10.693874651810585,14.681074569789676,0.08338788449430083,0.07965637185482984,1.1332717759310558,0.2560144625225977,1.0197066911090742,1.808211777417612,7.966666666666667,1.1848184818481848,0.0270344283063715,0.3242009132420091,0.0,0.02888814242526033,0.2631761924628007,-0.27158774373259054,-0.026200873362445413,-0.8351177730192719,0.0,28.439008826557814,0.1831883056593181,0.10333113145229782,-20.750158931977115,2992000000,-339000000,-4242000000,1.1332717759310558,2804000000.0,1619000000.0,1590000000.0,69.39536446086665,64.79242374187865,64.59145468560732,5.259717314487633,5.633374689826303,5.650902302426882,0.33702677746999077,-1.2396694214876034
PPG,2010-12-31,2010,FY,40.79939209726444,2.337386018237082,3.9817629179331306,3.048632218844985,6.0121580547112465,-1.8541033434650456,-13.379939209726444,-1.8541033434650456,12.948328267477203,13831160000.0,16561160000.0,17.98590377113134,1.0304075094986218,10.558137404580153,13.789790628115654,-22.674032786885245,-22.674032786885245,1.2337897638381883,8.475516888433981,12.642106870229007,16.51162512462612,0.05559909653275647,0.07251741719421943,-6.673770491803278,0.5612849855232318,1.3971340839303992,1.9470344827586208,7.164021164021164,1.4886363636363635,0.03231833049433309,0.5812743823146944,0.0,0.029352603739849513,0.5497035709361644,-0.23435114503816795,-0.022871191238918273,-0.6531914893617021,0.0,9.874689499224319,0.2658459012114025,0.23545621555419474,-8.571428571428571,3433000000,-4402000000,-610000000,-6.673770491803278,2703000000.0,1505000000.0,1560500000.0,75.53974521343963,72.25346968590212,69.89834429023618,4.831893448524118,5.051660516605166,5.2218690400508585,-1.2606557377049181,-0.9331306990881459
PPG,2009-12-31,2009,FY,37.132888349514566,1.0194174757281553,4.080703883495145,3.3555825242718447,3.2190533980582523,11.386529126213592,-0.8434466019417476,11.386529126213592,10.737257281553399,9647392000.0,11936392000.0,28.712476190476192,0.7882500204265054,7.172782156133829,8.722777576853526,2.5705814015454305,2.5705814015454305,0.9752751041751777,8.086986449864499,8.874640892193309,10.792397830018084,0.034828065450227375,0.11464238210699845,0.8915534239275247,0.23497191011235954,1.5508130081300813,1.6720715683533687,4.575129533678757,3.1572769953051645,0.04457163137975527,1.2797619047619047,0.0,0.03170193643271509,0.2949438202247191,-0.17769516728624535,-0.019527739194378627,-0.4979166666666667,0.0,16.160804513726102,0.08587919452667907,0.03346613545816733,-19.75728155339806,2404000000,-278000000,-4337000000,0.8915534239275247,2716000000.0,1393000000.0,1625000000.0,78.37405016749734,67.00623424857409,74.94627934739356,4.6571537290715375,5.447254335260116,4.87015503875969,0.08952837729816147,-0.725121359223301
PPG,2008-12-31,2008,FY,48.14398541919805,1.6342648845686514,4.125151883353585,2.9617253948967193,3.1014580801944107,10.124544349939246,-2.3693803159173754,10.124544349939246,12.654921020656136,6985624000.0,9876624000.0,12.984431226765798,0.44076118367089406,5.144053019145802,7.164742564102564,2.0958967896789678,2.0958967896789678,0.6231701684648874,5.725579130434783,7.2729189985272455,10.129870769230768,0.07701531030012496,0.1395723560271781,1.1737173717371736,0.26615866104231867,1.6759420289855071,1.5078384798099762,4.897637795275591,2.524163568773234,0.04910083909468932,0.637546468401487,0.0,0.0284560540097167,0.27983399101918627,-0.2820324005891016,-0.024165562496056534,-0.6802841918294849,0.0,19.294797597427195,0.11799965341432493,0.05082664147378366,-22.44835965978129,2138000000,-780000000,-5017000000,1.1737173717371736,2601000000.0,1776000000.0,1535000000.0,64.57568300839169,50.39192516001969,61.174790743476116,5.65228245363766,7.243223965763195,5.966509988249118,0.16141614161416143,-1.163426488456865
PPG,2007-12-31,2007,FY,34.06079027355623,2.534954407294833,3.027355623100304,1.9544072948328268,6.78419452887538,12.617021276595745,6.674772036474164,12.617021276595745,9.179331306990882,11554480000.0,14048480000.0,13.85429256594724,1.0310976262716403,11.600883534136546,17.96964230171073,2.7835413153457,2.7835413153457,1.2536569694806354,8.824422110552764,14.104899598393574,21.84833592534992,0.07217979519632213,0.055649410445126044,0.7275355336063599,0.239132156148547,1.5665829145728642,1.5310019309161125,0.0,1.1942446043165467,0.028993083202359608,0.40167865707434053,0.0,0.030251650901302874,0.16533375564177685,-0.35441767068273095,-0.0315009816169909,-0.9289473684210526,0.0,26.825927906987282,0.12592419655775872,0.07911962811877431,-11.034954407294833,2475000000,2196000000,-1209000000,0.7275355336063599,2283000000.0,1615500000.0,1379000000.0,78.10726396573264,110.73091576125299,70.45576407506702,4.6730608840700585,3.296279069767442,5.180555555555555,0.2009154420621537,-1.0729483282674772
PPG,2006-12-31,2006,FY,33.29727852807843,2.145000003031962,3.409071734776536,2.2867932521775347,1.3726793268347999,9.756582292271963,4.22362869795323,9.756582292271963,3.9068565456067383,10640139845.1,11480139845.1,14.965034943881859,0.9640427512095678,9.416052960265487,14.037123806200528,3.2900865321892394,3.2900865321892394,1.0401503891546617,6.0517342356879285,10.159415792123895,15.145303225725595,0.06682243000099569,0.07123966517687023,0.4004329004329004,0.12922861989821374,0.44280442804428044,1.6476498026551847,0.0,1.589310829817159,0.02969885777822031,0.4444444444444444,0.0,0.028812177222071213,0.19778465223031633,-0.3292035398230089,-0.0337048110899701,-0.9789473684210527,0.0,21.69970169256622,0.21550552623137265,0.08844383629804702,-11.654198328709521,1805000000,1400000000,-2047000000,0.4004329004329004,2019500000.0,1428500000.0,1254500000.0,71.69701911751382,56.078027288231944,72.10773166571916,5.090867158671586,6.508788159111933,5.061870503597122,0.21985157699443414,-1.1222784825990013
PPG,2005-12-31,2005,FY,30.0381794949216,1.7549999979387585,3.136031875511372,2.2879781852322405,2.7443959699310785,8.9899580431326,1.004119126337444,8.9899580431326,3.739681203661448,9831453003.0,10635453003.0,16.49572651510067,0.9637734538770709,9.231411270422536,12.653092667953668,3.220259745496233,3.220259745496233,1.0425892562493873,5.609416140822785,9.986340847887323,13.687841702702702,0.06062176158683104,0.07903206166605321,0.41598427775958075,0.14629650961870752,0.4240506329113924,1.7109408258833547,0.0,1.7869127516778522,0.03214173936482988,0.5302013422818792,0.0,0.030291147926673857,0.1905310448105057,-0.2704225352112676,-0.028232526222919323,-0.7741935483870968,0.0,18.841203990490172,0.20727031391484022,0.08481571082965704,-7.730392188907257,1670000000,1507000000,-1501000000,0.41598427775958075,1834000000.0,1713500000.0,1097500000.0,66.94588765807273,100.14521860033987,63.09825428703847,5.452164617851416,3.6447072072072073,5.784629133154603,0.19521781853914183,-0.8480536902791316
PPG,2004-12-31,2004,FY,27.71723282895137,1.990000002330893,2.966061496885577,2.2551390948815686,2.0657540287739433,10.407437786714421,2.1531625208236163,10.407437786714421,3.9333821422352937,11696804006.4,12337804006.4,17.125628120644215,1.2295599712393566,11.4899842891945,15.112149879069767,3.274581188801792,3.274581188801792,1.2969414492168612,8.313884101347709,12.119650300982318,15.94031525374677,0.058392018847737474,0.0661719217981681,0.37793952967525196,0.15114196148678907,0.43194070080862534,1.825303917154435,0.0,1.4904831625183017,0.026246485777826362,0.4494875549048316,0.0,0.03185115105644907,0.19178235557545903,-0.23968565815324164,-0.025649111741826974,-0.6288659793814433,0.0,21.586871645654387,0.1569217325556193,0.09461144202798172,-7.777170580119673,1833000000,1955000000,-1210000000,0.37793952967525196,1714000000.0,1577500000.0,1036500000.0,68.94828129927468,100.45257542923821,65.46757792965494,5.293823038397329,3.633555420956996,5.575278810408922,0.1912094064949608,-0.7109224020040087
PPG,2003-12-31,2003,FY,25.789433224483233,1.455000001472672,3.3076214608376735,2.668481784077411,1.469726722135351,8.573896769811636,0.7039372476760498,8.573896769811636,4.906943324804598,10867999989.0,12034999989.0,21.99999997773279,1.2412060288944724,9.677649144256456,11.995584976821192,3.733424936104431,3.733424936104431,1.3744860654408406,8.658273373381295,10.716829910062334,13.283664447019868,0.045454545500552085,0.08336400450101251,0.5723119203023016,0.19776828110161443,0.839568345323741,1.6535764375876578,0.0,2.2732793522267207,0.02705189550032857,0.5951417004048583,0.0,0.03312014618547282,0.19610636277302945,-0.19323241317898487,-0.024783005938784835,-0.550761421319797,0.0,16.75374423183682,0.0880100502512563,0.07294743059657413,-9.2932970741835,1398000000,1396000000,-1839000000,0.5723119203023016,1558500000.0,1441000000.0,969500000.0,67.98937871174053,99.43126245245426,65.91287810179315,5.368485591661558,3.670877659574468,5.537612838515547,0.16970113363105463,-0.6391396767602628
PPG,2002-12-31,2002,FY,23.967173902622967,-0.20499999991086956,2.5907246365547576,1.8836231875868306,0.3476086955010397,6.387681156643037,-0.971521738708034,6.387681156643037,6.093550721988311,8441560979.28,10375560979.279999,-122.34146346782607,1.0464312606024544,9.680689196422017,13.31476495154574,3.926307432223256,3.926307432223256,1.2861734200173545,4.875733542894737,11.898579104678898,16.365238137665614,-0.008173843696605645,0.07510459280649244,0.953953488372093,0.26084191784306243,0.9088345864661654,1.5338541666666667,0.0,-12.63768115942029,0.03399845131776551,-4.159420289855072,0.0,0.03384157679434734,0.19852473610581203,-0.27293577981651373,-0.029502913102764348,-0.5979899497487438,0.0,5.427999569105172,0.1622536214675849,-0.010948905109489052,-11.526050719626355,1025000000,720000000,-2637000000,0.953953488372093,1451000000.0,994000000.0,923000000.0,67.23565141936284,99.28345834978288,67.87011448874853,5.428667563930014,3.676342525399129,5.37791932059448,-0.03209302325581395,-0.7071014489679269
PPG,2001-12-31,2001,FY,24.274806210959227,1.1500000004457365,3.1498708022544717,2.285142119748763,0.3209302326825311,9.15245478390922,4.932816539379645,9.15245478390922,7.116925067357982,8702452170.539999,10989452170.539999,22.486956513023255,1.065302016224752,8.209860538245284,11.316582796540962,2.8254714839415582,2.8254714839415582,1.3452628437434202,7.375471255395973,10.367407708056604,14.29057499420026,0.04447022430184596,0.08836589790211768,0.7775974025974026,0.28336488405111215,1.5348993288590604,1.382608695652174,0.0,2.739018087855297,0.032519569709101824,0.7312661498708011,0.17076753580609622,0.032562125107112254,0.1824420255560814,-0.27452830188679245,-0.035622475211164156,-0.6510067114093959,0.0,15.388949529628125,0.10282933955237829,0.056005788712011575,-10.780878557150212,748000000,1660000000,-2547000000,0.7775974025974026,1489500000.0,687000000.0,1012500000.0,63.26845391112743,43.34241775355266,64.23204204788787,5.7690677966101696,8.421311475409835,5.682522123893805,0.12564935064935065,-0.8647286825057088
PPG,2000-12-31,2000,FY,25.051935516196046,1.8000000023225806,2.5258064548720083,0.8970967753510927,0.32225806493194586,8.99129033418231,4.5783871026817895,8.99129033418231,8.625483882097399,7977333323.04,10837333323.04,12.866666650064516,0.9244794672661953,9.169348647172415,25.81661269592233,2.5758260649144336,2.5758260649144336,1.2559199586325183,6.3450429291803285,12.456704969011495,35.07227612634305,0.07772020735417015,0.038734748503933186,0.9593154665805619,0.32558904109589043,1.674473067915691,1.2162799842705465,0.0,1.403225806451613,0.03459802778992091,0.44516129032258067,0.1580716189593232,0.032680496001854215,0.1806027397260274,-0.6448275862068965,-0.06501332715262487,-1.25503355704698,0.0,19.08264287262776,0.12397644241310554,0.08292095760331684,-11.776209692614463,550000000,1577000000,-2807000000,0.9593154665805619,1578500000.0,759500000.0,1068500000.0,66.11368640630432,52.27971503562055,76.70884889388826,5.520793346129238,6.981675392670157,4.758251561106155,0.2001937358734259,-1.6287096795209157
PPG,1999-12-31,1999,FY,22.328688355908827,1.634999998215317,2.596426053503901,1.1859507029308285,0.4548063375317255,8.94068660995911,4.438679572619751,8.94068660995911,8.031073934895659,10866691143.36,13498691143.36,19.131498491830985,1.400888377383009,12.047329427228382,26.375463940194177,3.4986127312813906,3.4986127312813906,1.7401948102823257,8.614352995124442,14.965289515920178,32.76381345475728,0.05226982091481192,0.03791402502975794,0.8982614294913072,0.3129908009872111,1.679642629227824,1.2843959731543624,0.0,1.5880281690140845,0.024294423805475963,0.4647887323943662,0.15856645610416398,0.03661209230372567,0.1864482835988333,-0.5432372505543237,-0.06316875080572386,-1.1694510739856803,0.0,18.135752212269946,0.11286379020886302,0.07832322118036404,-11.077988544245857,678000000,1542000000,-2648000000,0.8982614294913072,1480000000.0,692500000.0,966500000.0,75.00451205362897,58.396906124178855,78.58444585717314,4.866373902132999,6.250331125827815,4.644685039370079,0.1828718609143593,-1.4104753505730727
PPG,1998-12-31,1998,FY,21.1892634064392,2.2599999984764043,2.657827713564011,1.2837702862756106,0.36114856405116075,8.125842691151117,6.746142317549417,8.125842691151117,4.847290883124173,10310216821.11,11900216821.11,12.871681424606743,1.3728650893621839,10.945028472515924,22.65981718925275,3.57993639621875,3.57993639621875,1.5845827990825567,7.712389385035645,12.6329265616879,26.15432268375824,0.07768992775786883,0.044130982683932986,0.5965277777777778,0.23257073236767295,1.030460142579391,1.391213389121339,0.0,1.1760299625468165,0.024441775024947498,0.3146067415730337,0.15086551264980028,0.036085219707057255,0.07797482063083797,-0.5169851380042463,-0.06484687083888149,-1.2715404699738904,0.0,20.327299391863967,0.17415583300276855,0.11760387608280723,-7.925518097028989,748000000,2391000000,-1760000000,0.5965277777777778,1359500000.0,638000000.0,890000000.0,66.39014647137151,51.3739946380697,74.77770330652368,5.497803806734993,7.104761904761904,4.88113413304253,0.278125,-1.3740574272884007
PPG,1997-12-31,1997,FY,20.514446778567827,1.9849999999860994,2.799572829112048,1.504040616235966,0.35863445377900116,6.975301120399332,7.203270308072806,6.975301120399332,4.728970588202178,10272967254.48,11844967254.48,14.387909319999999,1.3921896265727063,10.201556359960277,18.988848899223658,4.094446892977282,4.094446892977282,1.6052266234557528,6.8349493678476625,11.762628852512412,21.894579028613677,0.06950280111996147,0.05266248656288397,0.6779593463531287,0.2476703552708212,0.9070975187536064,1.5547533092659447,0.0,1.4103641456582634,0.023264943232031918,0.33473389355742295,0.14473505895107738,0.033879929529746576,0.0,-0.4627606752730884,-0.06315218864344763,-1.2493297587131367,0.0,17.65033671881796,0.1923724904537897,0.10396039603960396,-7.511167717034236,922000000,2591000000,-1693000000,0.6779593463531287,1289300000.0,623950000.0,829750000.0,66.92573519447079,53.62519899931772,71.63861723902662,5.453806356245381,6.806501547987616,5.095017381228273,0.2845755280988442,-1.2955322128760818
PPG,1996-12-31,1996,FY,19.21751863684771,1.9808306709265175,2.683439829605964,1.4164004259850904,0.1853035143769968,6.609691160809372,6.812566560170394,6.609691160809372,3.946219382321619,10539336000.0,11951936000.0,14.165774193548387,1.4601260719579945,10.456727849985118,19.81078195488722,4.2452815596552,4.2452815596552,1.6558285421371275,7.348706345302508,11.858255779343189,22.466045112781956,0.07059268249916313,0.05047756329241235,0.5970353661483928,0.2301052566212314,0.8685440236104279,1.2982079258296115,0.0,1.3547043010752688,0.02244923209583602,0.318010752688172,0.13913633781743118,0.033125060611518264,0.0,-0.47216985812084533,-0.0659314778127208,-1.312465526751241,0.0,17.163486737122202,0.19849165400435248,0.11550284099729873,-6.644169329073482,527500000,2558800000,-1586200000,0.5970353661483928,1235350000.0,592650000.0,767000000.0,61.97531206273119,50.61712324032901,66.9821210515402,5.889441906005222,7.210998504735006,5.4492153170119275,0.29968581326029164,-1.2670394036208732
PPG,1995-12-31,1995,FY,17.469554455445543,1.9,2.6534653465346536,1.545049504950495,0.2613861386138614,6.359405940594059,6.528217821782178,6.359405940594059,3.021782178217822,9243520000.0,10358720000.0,12.042105263157895,1.3097071283846011,8.622686567164179,14.808586991348927,3.597820333177643,3.597820333177643,1.4677189452654547,6.408116300649551,9.662985074626866,16.5951938481256,0.08304195804195805,0.06752838745413003,0.47516736727385955,0.19708441631822804,0.6898855552118776,1.3965263287099545,0.0,1.3965607087024492,0.025845132590182094,0.31122980719124543,0.13844453575527438,0.03349533134023832,0.0,-0.41772388059701493,-0.06344843220879323,-1.2736063708759955,0.0,16.48831719613606,0.2096004700133696,0.12392037841241141,-5.3186262376237625,646100000,2637400000,-1281400000,0.47516736727385955,1237000000.0,550600000.0,711950000.0,64.39229494027799,50.55459272097054,63.908145580589256,5.668380049795197,7.219917723688721,5.7113220338983055,0.2987700451502413,-1.1084158415841585
PPG,1994-12-31,1994,FY,14.939122227465786,1.2142520056630486,1.6307220386974988,0.8714016045304389,0.14653138272770175,6.0335063709296834,6.199386503067485,6.0335063709296834,2.6996224634261443,7865727999.999999,8947728000.0,15.285130198212203,1.242375537022997,11.381461438286788,21.299019767126996,3.076154868987094,3.076154868987094,1.4132752084912812,6.279548038458839,12.947081464332223,24.22888708367181,0.06542306064994874,0.04695051748547624,0.447438404380133,0.19411595038938564,0.7593515334409432,1.5220779220779221,0.0,1.3429848425961912,0.030232420953279854,0.4621064904780412,0.14515415718979024,0.03444844579226687,0.0,-0.4656344957314426,-0.05082764720748041,-0.9600238663484487,0.0,12.838981161752999,0.16612592436333948,0.08731060927399514,-4.576746106654082,743700000,2627300000,-1098400000,0.447438404380133,1112800000.0,719500000.0,684850000.0,70.8473117260551,48.893286767559175,64.81334885525806,5.151924485312068,7.465237543453071,5.631555944055944,0.20125146656237777,-0.75932043416706
PPG,1993-12-31,1993,FY,12.959234234234234,0.05,1.6682432432432432,1.088063063063063,0.252027027027027,5.570045045045045,5.686936936936937,5.570045045045045,2.543018018018018,8422679999.999999,9439880000.0,379.4,1.4638210604980968,11.37124341838801,17.434651210929413,3.4057175205208035,3.4057175205208035,1.6406055023549244,8.308290793874319,12.74453894964223,19.540219416269924,0.0026357406431207174,0.057357040751874706,0.45655250495329747,0.19978766699106432,0.8952649181482133,1.5814988290398126,0.0,2.5108474576271185,0.026214933964011457,9.945945945945946,0.0,0.0,0.0,-0.34777912785203186,-0.04476963450876797,-0.7355796687607081,0.0,2.503258012206428,0.11047726941300265,0.003928160665310094,-4.336542792792793,744900000,2525000000,-1100600000,0.45655250495329747,1010050000.0,684100000.0,712800000.0,63.22589895549106,93.03248298378618,69.00683415416967,5.772950737433531,3.92336083369518,5.289331186887165,0.008976588087824996,-0.5801801801801801
PPG,1992-12-31,1992,FY,13.74293830937554,0.7549999993144959,1.5842235427068727,0.9169207881468158,0.14513775816502833,6.379679079993403,6.52221665030857,6.379679079993403,3.0887867849225166,6967573516.259999,8212873516.259999,21.81456955623043,1.1984336703864875,10.396260095881827,17.962293158700692,2.5816345608433062,2.5816345608433062,1.4126272409673368,7.74799388326415,12.254362154968664,21.17265665444702,0.045840922848481847,0.055672179001021005,0.4841602134202823,0.23079640390695375,1.174811320754717,1.5569034317637669,0.0,2.098309329993738,0.028646988730610445,0.6249217282404509,0.0,0.0,0.0,-0.42121754700089525,-0.04855604671562978,-0.7564308681672026,0.0,10.410321718034883,0.1015337174292918,0.05641415122666337,-4.024145268731991,697800000,2759200000,-951700000,0.4841602134202823,1040650000.0,681050000.0,808800000.0,64.24964309671648,44.41888323214723,73.76317007432414,5.680965409419581,8.217225950782998,4.948268893978176,0.11834451072659231,-0.6673027545600569
PPG,1991-12-31,1991,FY,13.37877358490566,0.475,1.1294811320754716,0.3384433962264151,0.08867924528301886,6.26061320754717,6.438679245283019,6.26061320754717,3.711320754716981,5355120000.0,6891120000.0,26.589473684210528,0.9440327186827909,11.18212570474003,37.3179094076655,2.017374270107365,2.017374270107365,1.214808024539012,6.900090117152298,14.38947588223011,48.02174216027875,0.037608867775138555,0.026796785132732787,0.592804671312865,0.259832898517222,1.5379993992189847,1.6212607236105931,0.0,2.37785501489573,0.034098208816982625,0.9066534260178749,0.0,0.0,0.0,-0.7003549801628732,-0.05912632655219829,-0.8996781115879828,0.0,8.179871860589282,0.0775056632802569,0.033255176513325185,-4.852653301886792,832800000,2730000000,-1152900000,0.592804671312865,1063600000.0,965400000.0,910200000.0,68.06993265874556,91.39731837460666,87.42221918183063,5.3621325267038475,3.993552617200306,4.175139952016451,0.07587116217743455,-0.7910377358490566
PPG,1990-12-31,1990,FY,14.076988197258727,1.1099999993454086,2.135136898488125,0.9101158377109679,0.13863310859558284,5.953275059673722,6.115520215433139,5.953275059673722,3.7826031991172515,5026036039.0,6584736039.0,10.585585591828139,0.8346955922210781,5.503160012044235,12.910444487541742,1.973703529943059,1.973703529943059,1.0935556579865147,5.37836807890223,7.209828138618198,16.914297557153866,0.09446808505067307,0.0774566670392313,0.6353818967209895,0.26488982024164237,1.2731356693620846,1.507582454947297,0.0,1.923546756529065,0.034997759394299485,0.37047177759056443,0.0,0.0,0.0,-0.5737435672834775,-0.08702295147307935,-1.519721577726218,0.0,12.193565701945824,0.13445274082619454,0.07773157394977244,-5.0461399506888815,746400000,2615900000,-1275400000,0.6353818967209895,1088600000.0,933550000.0,849400000.0,64.81789949181254,99.62124469285752,92.69670016660396,5.631160572337043,3.6638771290735455,3.9375727436250134,0.18645199293147457,-1.225021060777157
PPG,1989-12-31,1989,FY,12.880770639608109,1.0450000002695614,1.3028804818494102,0.09704213244119746,0.14511392953012398,5.126834696077429,5.270600818212537,5.126834696077429,3.635935082623199,4491739711.76,6045739711.76,9.655502389853826,0.7833382242653599,7.744378813379311,103.97545629074075,1.9680759373263814,1.9680759373263814,1.0543484961476082,5.5026301190133795,10.423689158206898,139.94767851296297,0.10356788902572463,0.009617654354925417,0.7091968628138282,0.2867113047791122,1.4143988349868026,1.5371907004560066,0.0,1.2467755803955287,0.036823148849645,0.3555460017196905,0.0,0.0,0.0,-0.9255172413793104,-0.09361538863989118,-1.7304964539007093,0.0,10.979285077937247,0.13320764562580195,0.08240337265738477,-4.552724904441804,718600000,2346300000,-1242800000,0.7091968628138282,1058950000.0,425700000.0,718400000.0,70.5225754695593,86.53884711779448,76.60832637148427,5.1756476216265,4.217758985200845,4.76449515722436,0.20382947027121764,-1.2058383494082128
PPG,1988-12-31,1988,FY,12.842633657266505,1.06499999966975,,,0.23550256622295151,5.10954020371924,5.10954020371924,5.10954020371924,2.9683800247424825,4430125822.97,5630025822.97,9.474178406693754,0.7856643948019935,0.0,0.0,1.9747373731701883,1.9747373731701883,0.9984616707698584,4.578001157074321,0.0,0.0,0.10555004952128344,,0.580948560221093,0.2528666498515745,0.9756871035940803,1.501779359430605,0.0,0.0,,,0.0,0.0,0.0,0.0,,0.0,,11.065141530665354,0.15575500529465763,0.0907238897188646,-3.890689156193007,634500000,2243400000,-1011700000,0.580948560221093,1023650000.0,0.0,666900000.0,65.3785447000195,0.0,74.788979542864,5.582871287128713,0.0,4.880398184746011,0.2084336275296425,
PPG,1987-12-31,1987,FY,10.994643330681518,0.8,,,0.17417130734553168,4.335189604879342,4.335189604879342,4.335189604879342,2.9971890745160437,3902984999.9999995,5233685000.0,10.349999999999998,0.753094006869139,0.0,0.0,1.9099510643503792,1.9099510643503792,1.0098570215721838,6.26788622754491,0.0,0.0,0.09661835748792272,,0.6913628578419379,0.2832454539986768,1.5936526946107785,1.4399121430812676,0.0,0.0,,,0.0,0.0,0.0,0.0,,0.0,,8.83365229606804,0.1114862728091646,0.07560295916117003,-3.731583134447096,560800000,2043500000,-1108800000,0.6913628578419379,966650000.0,0.0,626150000.0,73.05493381700305,0.0,76.92734987368011,4.9962402390822325,0.0,4.744736437682496,0.1845363347198434,
PPG,1986-12-31,1986,FY,9.851205745673978,0.6649999995586283,,,0.1393473450402562,4.15688052821446,4.15688052821446,4.15688052821446,2.8462168122702103,4334442108.139999,5622342108.139999,13.699248129393172,0.9247598959143178,0.0,0.0,2.1915472283041764,2.1915472283041764,1.1995353434191716,6.810007398425387,0.0,0.0,0.07299670686702836,,0.6847001719081808,0.29176541560735986,1.5599563953488371,1.6561443066516348,0.0,0.0,,,0.0,0.0,0.0,0.0,,0.0,,7.886528061328853,0.10624777598335752,0.06816908691343129,-3.414325218972793,640200000,1977800000,-1047700000,0.6847001719081808,830300000.0,0.0,564600000.0,69.77448742292677,0.0,78.66728764375023,5.231138392857143,0.0,4.639793882978723,0.15997573060976844,
PPG,1985-12-31,1985,FY,8.182804750697478,0.5699999995480673,,,0.045758176376009374,3.2111694721814317,3.2111694721814317,3.2111694721814317,2.3010901864808004,3388115792.16,4585815792.16,11.192982465014866,0.7796837630100103,0.0,0.0,1.986815101249047,1.986815101249047,1.0553022188839027,6.242602494092023,0.0,0.0,0.08934169271913281,,0.7165894564006333,0.2992311082815025,1.6304111080860333,1.6635502671199611,0.0,0.0,,,0.0,0.0,0.0,0.0,,0.0,,6.41741758405,0.10737191040705585,0.07412214114305304,-2.856496528954215,546500000,1705300000,-1008400000,0.7165894564006333,,,,64.22252905304337,0.0,72.98063440330465,5.683363850379283,0.0,5.001326762699015,0.17750542426552512,
