symbol,date,calendarYear,period,revenuePerShare,netIncomePerShare,operatingCashFlowPerShare,freeCashFlowPerShare,cashPerShare,bookValuePerShare,tangibleBookValuePerShare,shareholdersEquityPerShare,interestDebtPerShare,marketCap,enterpriseValue,peRatio,priceToSalesRatio,pocfratio,pfcfRatio,pbRatio,ptbRatio,evToSales,enterpriseValueOverEBITDA,evToOperatingCashFlow,evToFreeCashFlow,earningsYield,freeCashFlowYield,debtToEquity,debtToAssets,netDebtToEBITDA,currentRatio,interestCoverage,incomeQuality,dividendYield,payoutRatio,salesGeneralAndAdministrativeToRevenue,researchAndDdevelopementToRevenue,intangiblesToTotalAssets,capexToOperatingCashFlow,capexToRevenue,capexToDepreciation,stockBasedCompensationToRevenue,grahamNumber,roic,returnOnTangibleAssets,grahamNetNet,workingCapital,tangibleAssetValue,netCurrentAssetValue,investedCapital,averageReceivables,averagePayables,averageInventory,daysSalesOutstanding,daysPayablesOutstanding,daysOfInventoryOnHand,receivablesTurnover,payablesTurnover,inventoryTurnover,roe,capexPerShare
PPG,2023-09-30,2023,Q2,19.661303979678237,1.8035563082133785,3.7764606265876375,3.1879762912785776,5.4276037256562235,32.81541066892464,-2.802709568162574,32.81541066892464,29.9618966977138,30658760000.000004,36453760000.0,17.992230046948357,6.601800172265289,34.370807174887894,40.71548472775565,3.9554586504967104,3.9554586504967104,7.8496468561584845,10.839655069878084,40.86744394618834,48.41136786188579,0.01389488681212156,0.024560680210158527,0.9047864791639788,0.32617087577321985,1.7231638418079096,1.4807843137254901,6.8125,2.0458715596330275,0.0049904170944943625,0.3591549295774648,0.22545219638242894,0.023255813953488372,0.3998418678201014,-0.15582959641255606,-0.029931093884582257,-0.9788732394366197,0.0017226528854435831,36.491778809307334,0.02191238894444268,0.03301301921884687,-35.84462320067739,2452000000.0,-662000000.0,-6014000000.0,0.9047864791639788,1158000000.0,0.0,2361500000.0,70.0,0.0,72.50363372093024,1.2857142857142858,0.0,1.241317095173658,0.05496065023867888,-0.5884843353090601
PPG,2023-06-30,2023,Q1,20.64406779661017,2.0762711864406778,2.2711864406779663,1.7542372881355932,5.491525423728813,32.26271186440678,31.402542372881356,32.26271186440678,33.03389830508475,34998800000.0,33958800000.0,17.8565306122449,7.183661740558292,65.29626865671642,84.53816425120773,4.596637772524297,4.596637772524297,6.9701970443349754,40.14042553191489,63.35597014925373,82.02608695652174,0.014000480016457704,0.01182897699349692,1.015103756238508,0.3575923012862034,-1.2293144208037825,1.4896602658788773,10.64179104477612,41.23076923076923,0.00417157159674046,0.2979591836734694,0.21941707717569786,0.02257799671592775,0.40654205607476634,-0.22761194029850745,-0.02504105090311987,-0.04123014531936465,0.0034893267651888342,38.8225208920206,0.035319453971314335,0.03820067046074686,-16.266949152542374,2652000000.0,7411000000.0,2652000000.0,1.015103756238508,1149500000.0,2173500000.0,2552500000.0,-23.940886699507388,0.0,78.6950453593859,-3.759259259259259,0.0,1.14365522745411,0.0643551352771211,-0.5169491525423728
PPG,2023-03-31,2022,Q4,18.575063613231553,1.1195928753180662,0.3604749787955895,-0.1484308736217133,6.2849872773536894,30.28837998303647,36.58184902459712,30.28837998303647,31.170483460559797,31498164000.000004,37363164000.0,29.82780681818182,7.191361643835617,370.5666352941177,-899.9475428571429,4.41027219266312,4.41027219266312,8.530402739726027,68.5562642201835,439.56663529411765,-1067.5189714285714,0.008381440899221935,-0.0011111758767907867,1.02086250350042,0.3299244309697271,10.761467889908257,1.6830320460147905,6.983050847457627,0.31135531135531136,0.004635190800327282,0.553030303030303,0.26986301369863014,0.023744292237442923,0.3893841350287343,-1.411764705882353,-0.0273972602739726,-0.9022556390977443,0.0038812785388127853,27.6222686389716,0.02179702388727158,0.01956425077812361,2.58587786259542,3325000000.0,8626000000.0,3325000000.0,1.02086250350042,3449000000.0,3631000000.0,2435500000.0,73.86986301369863,150.70493066255779,90.1040061633282,1.2183588317107092,0.5971934667586841,0.9988457098884186,0.03696443573228787,-0.5089058524173028
PPG,2022-12-31,2022,Q3,17.770700636942674,1.010615711252654,2.492569002123142,1.8556263269639066,4.900212314225053,27.991507430997878,-7.571125265392781,27.991507430997878,32.64543524416136,29611770000.0,36147770000.0,31.104800420168065,7.075691756272401,50.445945485519594,67.76148741418764,4.492076759708738,4.492076759708738,8.637459976105138,69.9183172147002,61.58052810902896,82.71800915331808,0.008037344609930443,0.014757645355208418,1.1582220873786409,0.3680582337061319,12.642166344294004,1.5193814869730988,7.245283018867925,2.386178861788618,0.004930471903570776,0.6134453781512605,0.22819593787335724,0.025806451612903226,0.40937138449672195,-0.2555366269165247,-0.035842293906810034,-1.1278195488721805,0.0019115890083632018,25.228848305199488,0.02054999249476265,0.01942539993470454,-39.353503184713375,2452000000.0,-1783000000.0,-6862000000.0,1.1582220873786409,3422000000.0,1457500000.0,2341500000.0,71.03225806451613,100.01906214258483,77.9565383149066,1.2670299727520435,0.8998284734133791,1.1544894366197183,0.03610436893203883,-0.6369426751592356
PPG,2022-09-30,2022,Q2,18.9723991507431,1.3970276008492568,2.1740976645435244,1.732484076433121,4.624203821656051,25.62208067940552,-8.883227176220807,25.62208067940552,32.47133757961783,26067495000.0,32639495000.0,19.80812689969605,5.834264771709937,50.913076171875,63.89091911764706,4.320101922439509,4.320101922439509,7.305168979409132,51.40077952755905,63.749013671875,79.99876225490196,0.012621082309596684,0.01565167654199224,1.2596950613191913,0.36424190147594404,10.3496062992126,1.5205034510759237,10.869565217391305,1.5103244837758112,0.005562483084776654,0.44072948328267475,0.20837063563115488,0.024619516562220233,0.39467126701169253,-0.203125,-0.023276633840644583,-0.7703703703703704,0.0020143240823634737,28.379252329071495,0.029356576583254728,0.026044965167827738,-41.50212314225053,2564000000.0,-2092000000.0,-7234000000.0,1.2596950613191913,3679500000.0,0.0,2446000000.0,71.32721575649059,0.0,76.9195320808224,1.261790454673821,0.0,1.1700539195354624,0.054524361948955914,-0.4416135881104034
PPG,2022-06-30,2022,Q1,19.843485617597292,1.865482233502538,0.7106598984771574,0.41455160744500846,4.196277495769881,26.150592216582066,-9.631979695431472,26.150592216582066,33.642131979695435,27029976000.0,34013976000.0,15.323115646258504,5.7620925175868685,160.89271428571428,275.81608163265304,4.372367518602394,4.372367518602394,7.25090087401407,49.65543941605839,202.46414285714286,347.081387755102,0.016315219813735682,0.003625604403052374,1.2803299902944032,0.36691081030966066,10.195620437956205,1.5016456921587609,14.31578947368421,0.375,0.005179434861503392,0.31746031746031744,0.0,0.024515028778512044,0.39718153161505654,-0.4166666666666667,-0.014922191430398636,-0.49645390070921985,0.002558089959496909,33.13046885347506,0.030153121319199054,0.033912642263918796,-43.08375634517766,2591000000.0,-2277000000.0,-7525000000.0,1.2803299902944032,3738500000.0,0.0,2460000000.0,73.25090599019398,0.0,75.58903182125931,1.2286537454164483,0.0,1.1906489318823055,0.0713361371724361,-0.2961082910321489
PPG,2022-03-31,2021,Q4,18.20794590025359,0.0760777683854607,-1.2848689771766695,-2.1048182586644124,4.3660185967878276,26.280642434488588,-10.519864750633982,26.280642434488588,31.162299239222317,31011162000.0,37394162000.0,430.7105833333333,7.1985055710306405,-102.01040131578947,-62.27140963855422,4.987321003538115,4.987321003538115,8.680167595171774,68.86586003683242,-123.00711184210526,-75.08867871485944,0.0005804361668227718,-0.01605873394876335,1.1809263428755228,0.40040351164185617,11.755064456721914,1.4746713070378963,13.266666666666667,-13.217391304347826,0.004482257066020293,7.722222222222222,0.22609099350046424,0.02669452181987001,0.481051311412836,0.6381578947368421,-0.04503249767873723,-1.3379310344827586,0.001392757660167131,6.707151715402223,0.00853457743865714,0.0018913523169065882,-29.6248943364328,2455000000.0,-2489000000.0,-4379000000.0,1.1809263428755228,3405500000.0,1551000000.0,2305000000.0,76.44150417827298,0.0,81.36026686434397,1.1773708663569282,0.0,1.106191061910619,0.002894821486008363,-0.819949281487743
PPG,2021-12-31,2021,Q3,17.649536647009267,1.2047177759056444,1.9208087615838247,1.2847514743049706,4.5155855096882895,26.478517270429656,-11.036225779275485,26.478517270429656,31.575400168491996,40937256000.0,40124256000.0,35.78431468531468,9.77022816229117,89.77468421052632,134.22051147540984,6.512449252306713,6.512449252306713,9.576194749403342,78.21492397660819,87.99178947368421,131.55493770491805,0.006986301182473002,0.007450426086203726,1.1877187400572702,0.3496791719357407,-1.5847953216374269,1.4204425711275026,10.666666666666666,1.6402877697841727,0.003419867711700071,0.48951048951048953,0.2467780429594272,0.02768496420047733,0.4229778464708913,-0.33114035087719296,-0.0360381861575179,-1.0134228187919463,0.0042959427207637235,26.790495698932155,0.022623421751850357,0.023214285714285715,-43.885846672283066,1995000000.0,-2620000000.0,-8200000000.0,1.1877187400572702,3267000000.0,1551000000.0,2210000000.0,67.70405727923628,103.7072808320951,72.5817236255572,1.3293147208121827,0.8678272082527402,1.2399815753109167,0.04549793191218581,-0.6360572872788542
PPG,2021-09-30,2021,Q2,18.377469525010508,1.4459857082807903,2.2068095838587642,1.8789407313997477,5.48129466162253,26.284153005464482,-11.08869272803699,26.284153005464482,29.508196721311474,34022078999.999996,39796079000.0,24.725348110465113,7.781811299176577,64.80395999999999,76.11203355704697,5.440920997920998,5.440920997920998,9.102488334858188,62.37629937304075,75.80205523809524,89.02925950782998,0.010111081101187263,0.013138526896019496,1.1178634255557331,0.3890898970219872,9.050156739811912,1.3362621270364268,13.6,1.5217391304347827,0.004114974866762258,0.4069767441860465,0.217291857273559,0.02607502287282708,0.5036459782911217,-0.14857142857142858,-0.017840805123513267,-0.5342465753424658,0.0009149130832570906,29.2428874429965,0.023754087480046718,0.038577997084221154,-27.700714585960487,1837000000.0,-2638000000.0,-4255000000.0,1.1178634255557331,3440000000.0,0.0,2237500000.0,69.62031107044831,0.0,74.06147091108672,1.2927261975162625,0.0,1.2152067585593598,0.05501359347513193,-0.32786885245901637
PPG,2021-06-30,2021,Q1,18.330529857022707,1.8124474348191757,2.5399495374264087,2.2792262405382675,5.487804878048781,26.248948696383515,-11.968040370058873,26.248948696383515,31.042893187552565,40371306000.0,46527306000.0,23.41723085846868,9.261598072952513,66.8399105960265,74.48580442804428,6.467687600128165,6.467687600128165,10.673848589125946,62.874737837837834,77.03196357615894,85.84373800738007,0.010675899362780088,0.013425376924888186,1.1776674142902916,0.40200153122607457,8.31891891891892,1.3567784256559767,16.322580645161292,1.3949191685912241,0.0031705687202687968,0.29698375870069604,0.21908694654737326,0.024546914429915117,0.5062342775894126,-0.10264900662251655,-0.014223445744436798,-0.45255474452554745,0.0041293874741913286,32.717486058037224,0.026798713405386778,0.0477350758666519,-28.736333052985703,1958000000.0,-2846000000.0,-4429000000.0,1.1776674142902916,3266000000.0,0.0,2070000000.0,72.22298692360633,0.0,76.20387980220616,1.2461406518010292,0.0,1.1810422282120396,0.06904838192886895,-0.2607232968881413
PPG,2021-03-31,2020,Q4,16.34793597304128,1.5922493681550127,-0.09688289806234204,-0.43386689132266215,8.121314237573715,24.595619208087616,-6.255265374894693,24.595619208087616,27.07245155855097,35671724000.0,40260724000.0,23.59241005291005,9.191374388044318,-1550.9445217391303,-346.32741747572817,6.109218016783696,6.109218016783696,10.37380159752641,61.186510638297875,-1750.4662608695653,-390.8808155339806,0.010596628298649094,-0.0028874410443408905,1.0955643089570133,0.38946727549467275,6.974164133738602,1.4333984375,17.566666666666666,-0.05974025974025974,0.0035882762492779993,0.3386243386243386,0.229580005153311,0.026281886111826847,0.45382039573820393,3.4782608695652173,-0.02061324400927596,-0.6201550387596899,0.004380314351971141,29.68422275768431,0.03274832525876495,0.04213577081707725,-22.306234203875317,2219000000.0,-1485000000.0,-3117000000.0,1.0955643089570133,2880000000.0,1289500000.0,1824500000.0,70.35815511466117,0.0,77.1774193548387,1.2791694133157547,0.0,1.1661442006269593,0.064737112519267,-0.33698399326032014
PPG,2020-12-31,2020,Q3,15.838954468802697,1.1467116357504217,4.072512647554806,3.5075885328836427,8.102866779089377,23.98397976391231,-6.905564924114671,23.98397976391231,27.98060708263069,34208984000.0,32562984000.0,31.44208088235294,9.105398988554699,35.413026915113875,41.11656730769231,6.013180523817894,6.013180523817894,8.667283470854406,54.635879194630874,33.709093167701866,39.13820192307692,0.007951127692070598,0.024321096469863003,1.1611882580418351,0.33779914092861524,-2.761744966442953,1.4115448504983388,16.677419354838708,3.4748201438848922,0.0037417071492096927,0.47058823529411764,0.23476177801437317,0.026616981634282673,0.3811106565759869,-0.13871635610766045,-0.035666755389938784,-1.072,0.003992547245142401,24.87591093819119,0.033394557230402834,0.02247376683466909,-37.55059021922428,1982000000.0,-1638000000.0,-6943000000.0,1.1611882580418351,2784500000.0,1289500000.0,1703500000.0,65.3021027415491,108.46261682242991,72.96728971962618,1.3782098312545854,0.8297789841023653,1.2334293948126802,0.04781156618034804,-0.5649241146711635
PPG,2020-09-30,2020,Q2,15.561655405405405,1.866554054054054,3.5557432432432434,3.2263513513513513,8.847128378378379,22.423986486486488,-3.90625,22.423986486486488,26.94679054054054,28908544000.0,27074544000.0,16.350986425339368,7.844923744911805,34.333187648456054,37.83840837696335,5.444170244821092,5.444170244821092,7.34723039348711,36.686373983739834,32.1550403800475,35.43788481675393,0.015289597428358895,0.02642817293046651,1.195291902071563,0.34683060109289615,-2.4850948509485096,1.5178842401907653,17.61764705882353,1.8794642857142858,0.0043931648719492756,0.2873303167420814,0.22686567164179106,0.02496607869742198,0.3469398907103825,-0.09263657957244656,-0.021166892808683852,-0.5909090909090909,0.0037991858887381274,30.687955534689912,0.03965403204689825,0.03698435277382646,-32.9930320945946,2389000000.0,-925000000.0,-5874000000.0,1.195291902071563,2758000000.0,0.0,1689000000.0,69.43554952510176,0.0,74.27443237907207,1.2961660218079494,0.0,1.2117224880382775,0.0832391713747646,-0.3293918918918919
PPG,2020-06-30,2020,Q1,12.743026204564666,0.43110735418427726,2.032967032967033,1.8005071851225698,9.708368554522401,20.422654268808113,-5.431107354184277,20.422654268808113,30.355029585798817,25093796000.0,23012796000.0,61.504401960784314,8.322983747927031,52.170054054054056,58.90562441314554,5.193252483443709,5.193252483443709,7.63276815920398,50.57757362637363,47.843650727650726,54.020647887323946,0.004064749709450096,0.016976307610056286,1.4778559602649006,0.393010456796918,-4.573626373626373,1.3521207489491784,8.21951219512195,4.958762886597938,0.004821908969053546,1.1862745098039216,0.25406301824212274,0.028524046434494195,0.34248761695101815,-0.11434511434511435,-0.01824212271973466,-0.44715447154471544,0.0026533996683250414,14.07472983978866,0.02136334880900098,0.008537708211266426,-34.13884192730347,1843000000.0,-1285000000.0,-6155000000.0,1.4778559602649006,2738500000.0,0.0,1782500000.0,79.7910447761194,0.0,90.15854374633,1.127946127946128,0.0,0.9982415005861665,0.021109271523178808,-0.23245984784446322
PPG,2020-03-31,2019,Q4,14.279069767441861,1.0274841437632136,-0.6723044397463002,-0.828752642706131,8.186046511627907,19.970401691331922,-5.59830866807611,19.970401691331922,29.733615221987314,19771400000.0,18051400000.0,20.34094650205761,5.854723127035831,-124.34842767295598,-100.87448979591836,4.18619521490578,4.18619521490578,5.345395321291087,37.06652977412731,-113.5308176100629,-92.09897959183674,0.012290480188555188,-0.00991330912327908,1.482108829134025,0.387511071744907,-3.5318275154004106,1.3601539942252165,10.4375,-0.6411290322580645,0.006069372932619845,0.49382716049382713,0.2679893396505774,0.029908202546639027,0.3410651018600531,0.23270440251572327,-0.010956470239857862,-0.2868217054263566,0.00207284572105419,21.48682385450619,0.02184047792129444,0.02041502142317063,-34.91966173361522,1871000000.0,-1324000000.0,-6161000000.0,1.482108829134025,2780000000.0,1189000000.0,1784500000.0,74.72904945217648,0.0,87.68867924528301,1.2043509272467903,0.0,1.0263582571274878,0.05145034935422401,-0.15644820295983086
PPG,2019-12-31,2019,Q3,15.49367088607595,1.2320675105485233,3.413502109704641,2.6160337552742616,5.371308016877637,22.29535864978903,-5.0548523206751055,22.29535864978903,22.172995780590718,31637130000.000004,35643130000.0,27.086583904109588,8.615776143790852,39.10646477132263,51.02762903225807,5.987344814534444,5.987344814534444,9.706734749455338,62.973727915194345,44.05825710754017,57.48891935483871,0.009229661476878592,0.019597226423509338,0.9882664647993944,0.3647412167353496,7.07773851590106,1.4102857142857144,13.090909090909092,2.66996699669967,0.0038246199955558544,0.4143835616438356,0.2434640522875817,0.02968409586056645,0.46106027799119925,-0.23362175525339926,-0.051470588235294115,-1.4104477611940298,0.0029956427015250544,24.86083683506493,0.0308059593584257,0.03784344219803007,-19.911392405063292,1795000000.0,-1198000000.0,-2744000000.0,0.9882664647993944,2892000000.0,1189000000.0,1785000000.0,67.54901960784314,101.38323069635244,72.90383704405495,1.3323657474600872,0.8877207737594617,1.234502923976608,0.05526116578349735,-0.7974683544303798
PPG,2019-09-30,2019,Q2,16.136651202024463,1.5478700970054828,3.3277098270771828,2.9439055250948964,6.2842682412484185,22.12990299451708,-4.483340362716153,22.12990299451708,26.600590468156895,28098721000.0,26828721000.0,19.14081811989101,7.344150810245687,35.613081115335866,40.256047277936965,5.3551974461597105,5.3551974461597105,7.012211447987454,41.3385531587057,34.00344866920152,38.436563037249286,0.013061092709522258,0.02484098831402326,1.1957308938441014,0.34732063773250665,-1.9568567026194146,1.4890782000873743,15.696969696969697,2.120967741935484,0.004270657016737523,0.32697547683923706,0.23183481442760062,0.027966544694197595,0.35529229406554474,-0.11533586818757921,-0.02378463146889702,-0.6842105263157895,0.0023523261892315736,27.76184143089241,0.0342904549015993,0.03151296582517603,-33.81695487136229,2239000000.0,-1063000000.0,-5892000000.0,1.1957308938441014,3180000000.0,0.0,1902500000.0,71.22843700993204,0.0,76.75378266850069,1.263540290620872,0.0,1.1725806451612903,0.06994473032208881,-0.38380430198228593
PPG,2019-06-30,2019,Q1,16.986070071760235,1.1481637821865767,2.313212325875897,1.9501899535669058,4.288729421696918,21.439425918108906,-5.0907555930772475,21.439425918108906,26.479527226677924,28103447000.0,27307447000.0,25.83037408088235,6.983958001988071,51.28366240875912,60.82997186147186,5.533263831462886,5.533263831462886,6.786144880715706,39.01063857142857,49.83110766423358,59.107028138528136,0.009678528046755262,0.01643926455000342,1.2281945264815908,0.34742411584516847,-1.1371428571428572,1.4252018699532512,16.142857142857142,1.9783393501805053,0.004056441901948896,0.41911764705882354,0.23210735586481113,0.0275844930417495,0.3560568086883876,-0.15693430656934307,-0.021371769383697812,-0.6825396825396826,0.002485089463220676,23.53421717151452,0.037542951122318466,0.023525341636395088,-34.953566905867454,2001000000.0,-1206000000.0,-6061000000.0,1.2281945264815908,3264500000.0,0.0,1955000000.0,74.52286282306163,0.0,76.50786713286713,1.2076830732292918,0.0,1.176349614395887,0.05355384918291002,-0.36302237230899115
PPG,2019-03-31,2018,Q4,15.310519645120406,1.3181242078580482,-0.2788339670468948,-0.47739754964089565,3.5445711871567385,20.71820870299958,-4.702154626108999,20.71820870299958,25.534431770173214,27035874000.0,26419874000.0,21.663360576923075,7.460230132450331,-409.63445454545456,-239.2555221238938,5.5130248776508965,5.5130248776508965,7.290252207505519,46.7608389380531,-400.3011212121212,-233.8041946902655,0.011540222446664753,-0.004179631847670247,1.226141924959217,0.3461516320303955,-1.0902654867256638,1.3969049694856146,14.161290322580646,-0.2082018927444795,0.004179631847670247,0.36217948717948717,0.24530905077262694,0.028973509933774833,0.35248402509930343,0.7121212121212122,-0.012969094922737307,-0.3983050847457627,0.0024834437086092716,24.788230670719088,0.02996222507139989,0.027738264580369845,-34.39691592733418,1821000000.0,-1113000000.0,-5952000000.0,1.226141924959217,3021000000.0,1230000000.0,1874000000.0,79.39569536423842,0.0,85.3111432706223,1.133562715045355,0.0,1.0549618320610687,0.0636215334420881,-0.19856358259400084
PPG,2018-12-31,2018,Q3,15.283018867924529,1.0817610062893082,3.3542976939203353,2.5786163522012577,4.037735849056604,19.41299790356394,-5.4926624737945495,19.41299790356394,21.157232704402517,24381855000.0,28495855000.0,23.625828488372093,6.689123456790123,30.477318750000002,39.64529268292683,5.26605939524838,5.26605939524838,7.817792866941015,57.68391700404858,35.61981875,46.33472357723577,0.010581639501998514,0.025223675557089483,1.0833693304535637,0.31320636902903526,8.327935222672064,1.365948670944088,12.666666666666666,3.088803088803089,0.004716622258642749,0.44573643410852715,0.2345679012345679,0.02880658436213992,0.37727130814861065,-0.23125,-0.05075445816186557,-1.4566929133858268,0.0043895747599451305,21.737181126198493,0.029833897758426063,0.025869848591196228,-30.58595387840671,1597000000.0,-1310000000.0,-5322000000.0,1.0833693304535637,3031000000.0,1230000000.0,1872500000.0,70.24691358024691,101.18829981718464,73.34095063985374,1.281195079086116,0.8894308943089431,1.2271452607964106,0.05572354211663067,-0.7756813417190775
PPG,2018-09-30,2018,Q2,15.759702725020643,1.560693641618497,2.213047068538398,1.7671345995045418,4.789430222956234,20.561519405450042,-3.5714285714285716,20.561519405450042,20.928984310487202,26581450000.0,30516450000.0,17.580324074074074,6.9639638459523185,49.59225746268657,62.106191588785045,5.337640562248996,5.337640562248996,7.994878176578465,51.54805743243243,56.93367537313433,71.30011682242991,0.014220443203813186,0.01610145420960858,1.0116465863453816,0.3013518363440603,6.64695945945946,1.7139588100686498,14.193548387096774,1.4408602150537635,0.004363945533445317,0.30687830687830686,0.2271417343463453,0.02881844380403458,0.35548510587390836,-0.20149253731343283,-0.02829447209850668,-0.8852459016393442,0.0007859575582918522,26.870620265585192,0.03622747347457503,0.035081206496519725,-29.25784475639967,2808000000.0,-865000000.0,-4899000000.0,1.0116465863453816,3327500000.0,0.0,1959000000.0,75.85276395074666,0.0,78.37549933422105,1.1865091700341934,0.0,1.1483180428134556,0.07590361445783132,-0.44591246903385634
PPG,2018-06-30,2018,Q1,16.868109432421395,1.5149040424663127,1.4659044507962433,1.2903225806451613,4.422213148223765,19.942833809718252,7.321355655369539,19.942833809718252,20.82890975908534,25403477000.0,29453477000.0,17.118245956873317,6.149473977245219,70.76177437325906,80.39075,5.201367117117117,5.201367117117117,7.1298661341079645,41.02155571030641,82.04311142061282,93.20720569620254,0.014604300033416685,0.01243924207698025,1.038083538083538,0.3018935334047874,5.64066852367688,1.6997776130467013,18.322580645161292,0.9573333333333334,0.004330115912872872,0.29649595687331537,0.22875816993464052,0.027596223674655047,0.35167321662498513,-0.11977715877437325,-0.010409101912369887,-0.344,0.002178649237472767,26.07217463164438,0.044673137350392175,0.03407421013960323,-18.19314005716619,2832000000.0,1793000000.0,-2216000000.0,1.038083538083538,3390500000.0,0.0,1958500000.0,74.90196078431373,0.0,73.99747793190417,1.2015706806282722,0.0,1.2162576687116564,0.07596232596232597,-0.17558187015108206
PPG,2018-03-31,2017,Q4,15.156124899919936,1.4131305044035227,-0.9127301841473179,-1.2129703763010409,5.620496397117694,21.401120896717373,-3.0624499599679744,21.401120896717373,20.99279423538831,27877680000.0,31749680000.0,19.74339943342776,7.363359746434232,-122.27052631578947,-92.00554455445544,5.214680134680135,5.214680134680135,8.38607501320655,52.13412151067323,-139.25298245614036,-104.78442244224422,0.012662459716877444,-0.010868910181908968,0.9760568649457538,0.3552076242341729,6.357963875205255,1.7664015904572565,17.653846153846153,-0.6826347305389222,0.004017550958329388,0.31728045325779036,0.23851030110935023,0.029582673005810883,0.42423417290673926,0.32894736842105265,-0.019809825673534072,-0.6097560975609756,0.002377179080824089,26.085589456068025,0.03319839002345629,0.04173563490186805,-17.3388710968775,3084000000.0,-765000000.0,-2115000000.0,0.9760568649457538,3123000000.0,1290500000.0,1845500000.0,79.46909667194929,0.0,80.88450962419799,1.1325157044570744,0.0,1.112697603263641,0.06603067714178826,-0.300240192153723
PPG,2017-12-31,2017,Q3,14.630463556780843,0.731125826846191,2.1298013216823826,1.5218543026200606,5.924503303411254,22.08476818266918,-1.2476821175527388,22.08476818266918,16.58145693168019,29399700038.94,32109700038.94,39.945244618124995,7.984709407642585,54.85018663981342,76.76161890062663,5.289618574836272,5.289618574836272,8.72072244403585,61.39521995973231,59.90615678906716,83.83733691629243,0.00625856725600232,0.01302734379917874,0.7459517812162648,0.3024290612006711,5.181644359464627,1.6568426447975397,14.11111111111111,3.526315789473684,0.003843576630044903,0.6141304347826086,0.25801195002715915,0.031504617055947856,0.43672040265519,-0.28544776119402987,-0.041553503530689845,-1.275,0.0024443237370994023,19.060476094810962,0.019735500605146374,0.023828023828023827,-13.918211902095084,2563000000.0,-314000000.0,-1571000000.0,0.7459517812162648,3029000000.0,1290500000.0,1767500000.0,70.95871808799565,109.72602739726027,73.547472838923,1.268343093351705,0.8202247191011236,1.223699421965318,0.03310543360921195,-0.6079470190623218
PPG,2017-09-30,2017,Q2,14.726989079563182,2.375195007800312,2.285491419656786,2.004680187207488,9.0795631825273,23.018720748829953,11.419656786271451,23.018720748829953,18.45553822152886,27860424000.0,30278424000.0,11.43695566502463,7.378290254237288,47.54338566552901,54.20315953307393,4.720505591324975,4.720505591324975,8.018650423728813,45.531464661654134,51.66966552901024,58.907439688715954,0.021858963811893173,0.018449109030070757,0.7971873941036937,0.26710190178824866,3.6360902255639096,1.653962754439151,20.0,1.4723618090452262,0.004163612154646319,0.19047619047619047,0.23967161016949154,0.030190677966101694,0.33948339483394835,-0.12286689419795221,-0.019067796610169493,-0.6153846153846154,0.0023834745762711866,35.07369225919668,0.0388907698117728,0.05234207133648475,-12.130460218408736,3020000000.0,2928000000.0,-1069000000.0,0.7971873941036937,3173000000.0,0.0,1785500000.0,75.19862288135594,0.0,77.35714285714286,1.1968304278922346,0.0,1.1634349030470914,0.103185360894612,-0.28081123244929795
PPG,2017-06-30,2017,Q1,14.803578374173473,1.9486581096849476,1.6997277323998443,1.4235705950991833,6.289381563593932,21.89809412679891,10.015558148580318,21.89809412679891,18.059120964605214,28270716000.0,31318716000.0,14.10714371257485,7.427933788754598,64.69271395881007,77.24239344262296,5.021441563055062,5.021441563055062,8.228774566473989,38.66508148148148,71.66754233409611,85.57026229508196,0.01772151791274052,0.012946258594936188,0.8200710479573712,0.27195617600282734,3.762962962962963,1.6088718757036704,23.5,0.8687872763419483,0.003607973706785495,0.20359281437125748,0.22727272727272727,0.029689963215974776,0.3512399128232314,-0.16247139588100687,-0.018654755648975303,-0.6513761467889908,0.0021019442984760903,30.98576642433906,0.045231369379020746,0.04548756128563646,-13.791326332166472,2704000000.0,2575000000.0,-1294000000.0,0.8200710479573712,3124000000.0,0.0,1746500000.0,75.45717288491855,0.0,76.34005763688761,1.1927295518646193,0.0,1.1789354473386184,0.08898756660746003,-0.2761571373006612
PPG,2017-03-31,2016,Q4,13.87356085226781,1.2983382809351214,0.034985163258730814,-0.2137982199144661,5.399376862930789,20.1825519599256,8.80071217975184,20.1825519599256,17.282670649813024,27032030492.64,30104030492.64,20.233555757964073,7.574118938817596,3003.558943626667,-491.49146350254546,5.2064773676117095,5.2064773676117095,8.434864245626226,51.28454939120954,3344.89227696,-547.3460089570909,0.012355712608823005,-0.0020346233337882194,0.851502311248074,0.27367834592051504,5.2333901192504255,1.555347531008659,18.32,0.02654867256637168,0.0038102946069124835,0.3083832335329341,0.2572149061361726,0.030820958251611096,0.35904419957905165,-7.111111111111111,-0.017932193891846457,-0.5614035087719298,0.004483048472961614,24.28137240503521,0.03605190515819352,0.03225806451612903,-13.77929527348734,2373000000.0,2264000000.0,-1444000000.0,0.851502311248074,2874500000.0,1087500000.0,1636500000.0,77.08882039787056,0.0,78.93854748603353,1.1674844618907425,0.0,1.1401273885350318,0.06432973805855162,-0.2487833831731969
PPG,2016-12-31,2016,Q3,13.34732824427481,1.3129770992366412,2.1908396946564888,1.6412213740458015,7.1106870229007635,18.419847328244273,-2.450381679389313,18.419847328244273,16.96564885496183,24827120000.0,27423120000.0,18.04296511627907,7.099548184157849,43.25282229965157,57.737488372093026,5.144450891007046,5.144450891007046,7.841898770374606,58.099830508474575,47.77547038327526,63.774697674418604,0.013855815736984394,0.017319769671230494,0.9150435142975549,0.34011090573012936,5.5,1.4990662931839402,14.310344827586206,7.08641975308642,0.0042292460825097715,0.30523255813953487,0.28195596225336,0.0328853302830998,0.42783425754775106,-0.2508710801393728,-0.04117815270231627,-1.2743362831858407,0.00028595939376608524,23.327212618569522,0.025979998145113918,0.04630502086418091,-13.038167938931299,2138000000.0,-642000000.0,-1649000000.0,0.9150435142975549,2827000000.0,1087500000.0,1611000000.0,69.28224192164713,99.46646341463413,70.70121951219512,1.299034175334324,0.9048275862068965,1.2729624838292368,0.07128056361375881,-0.549618320610687
PPG,2016-09-30,2016,Q2,14.228313931656027,-0.6909500563274502,2.914006759294029,2.5760420578295156,3.6612842658655653,18.892226811866315,9.402929027412693,18.892226811866315,16.665414945550133,27524768000.0,30999768000.0,-37.39778260869566,7.26438849300607,35.4700618556701,40.12356851311954,5.471033194195985,5.471033194195985,8.181517022961204,-119.22987692307693,39.94815463917526,45.189166180758015,-0.006684888315861554,0.02492300752544036,0.8753726893261777,0.26707095209217707,-13.365384615384615,1.4387892376681615,-11.617647058823529,-3.448888888888889,0.003851076964572417,-0.5760869565217391,0.5236210081815783,0.030878859857482184,0.3501516070345664,-0.11597938144329897,-0.023752969121140142,-0.8411214953271028,0.002903140670361573,17.13784311241426,-0.019868322959050774,-0.017170586039567004,-15.687194892977844,1957000000.0,2504000000.0,-1795000000.0,0.8753726893261777,3035000000.0,0.0,1739500000.0,70.3562945368171,0.0,72.48438250840941,1.2792032410533423,0.0,1.2416467780429594,-0.03657324587557146,-0.3379647014645137
PPG,2016-06-30,2016,Q1,15.209580838323353,1.3847305389221556,-0.3143712574850299,-0.6549401197604791,6.24625748502994,20.00748502994012,10.374251497005988,20.00748502994012,19.247754491017965,27828880000.0,31335880000.0,18.8032972972973,6.847657480314961,-331.29619047619053,-159.02217142857143,5.205551814440703,5.205551814440703,7.710600393700787,37.98288484848485,-373.0461904761905,-179.06217142857142,0.013295540460126314,-0.006288431298708392,0.9562289562289562,0.2963821892393321,4.250909090909091,1.6244571428571428,21.870967741935484,-0.22340425531914893,0.0038449265654959884,0.2891891891891892,0.23523622047244094,0.029281496062992126,0.32902365491651203,1.0833333333333333,-0.022391732283464565,-0.7520661157024794,0.004183070866141733,24.967217493739337,0.03622044961846963,0.03197096690572885,-14.593937125748504,2732000000.0,2772000000.0,-1694000000.0,0.9562289562289562,3107000000.0,0.0,1833000000.0,68.82874015748033,0.0,74.0958904109589,1.3075933075933075,0.0,1.2146422628951747,0.06921062476618033,-0.3405688622754491
PPG,2016-03-31,2015,Q4,13.75677233032946,1.2999999996253602,0.2210374639132457,-0.06743515848200717,3.8587896242481876,19.335158495868832,-2.49135446614082,19.335158495868832,16.090778093345598,29759253854.73,33114253854.73,21.4403846215634,8.104371964795751,504.39413313101693,-1653.2918808183333,5.766179781966672,5.766179781966672,9.018042988760893,53.15289543295345,561.258539910678,-1839.6807697072222,0.011660238583060008,-0.0006048538746255912,0.8261964735516373,0.2462604678024834,5.385232744783306,1.474539069359087,16.161290322580644,0.16666666666666666,0.0032258873313364867,0.276657060518732,0.2502723311546841,0.03213507625272331,0.34149581287900665,-1.305084745762712,-0.020969498910675382,-0.6363636363636364,0.0027233115468409588,23.78136635774277,0.03995201811147342,0.03043325732327662,-29.131988464227092,2162000000.0,-665000000.0,-5349000000.0,0.8261964735516373,2947000000.0,1087000000.0,1784000000.0,76.12745098039215,0.0,83.2935916542474,1.1822279459111398,0.0,1.0805152979066022,0.06723503197054834,-0.28847262239525284
PPG,2015-12-31,2015,Q3,13.729569093610698,1.1664190193164934,3.1612184249628528,2.3811292719167905,5.404903417533433,18.51040118870728,9.587667161961367,18.51040118870728,16.184992570579496,26602344000.0,29616344000.0,21.1802101910828,7.197603896103896,31.260098707403053,41.50131669266771,5.338620108368453,5.338620108368453,8.013080086580086,51.41726388888889,34.8018143360752,46.20334477379095,0.011803471152767593,0.024095621047528742,0.8679510335139474,0.25327945654720074,5.232638888888889,1.4229266174554929,14.6875,2.6677115987460813,0.0036087045562601555,0.3057324840764331,0.24945887445887446,0.03382034632034632,0.3424104005621926,-0.24676850763807284,-0.056818181818181816,-1.68,0.0035173160173160175,22.040755205708198,0.038443077169227485,0.02796330928844955,-15.785661218424963,1948000000.0,2581000000.0,-2094000000.0,0.8679510335139474,2925000000.0,1087000000.0,1773000000.0,67.8896103896104,93.48303870043,73.31581462016244,1.3256814921090387,0.9627414903403864,1.227565982404692,0.06301424844471203,-0.7800891530460624
PPG,2015-09-30,2015,Q2,14.282552563629658,1.5971966064182959,2.950940612320177,2.5673183327185543,5.215787532275913,18.85282183696053,9.911471781630395,18.85282183696053,16.905201032829215,23772759000.0,27309759000.0,13.72561143187067,6.139658832644628,29.71594875,34.15626293103448,4.651293093328116,4.651293093328116,7.053140237603306,37.0553039348711,34.13719875,39.23815948275862,0.018214124830862082,0.029277207580323344,0.8906280571316768,0.2590190053488107,4.799185888738127,1.5287211740041928,18.967741935483872,1.8223234624145785,0.004122365435160471,0.22632794457274827,0.22985537190082644,0.030733471074380167,0.3338454535108683,-0.13,-0.026859504132231406,-0.832,0.0007747933884297521,26.02906872780022,0.04597838731517189,0.036986418382164515,-16.18959793434157,2522000000.0,2687000000.0,-1728000000.0,0.8906280571316768,3174000000.0,0.0,1851000000.0,71.17252066115702,0.0,77.06511627906977,1.2645329849771392,0.0,1.1678435632808257,0.08471923302680492,-0.38362227960162304
PPG,2015-06-30,2015,Q1,15.045871559633028,1.236697247706422,2.256880733944954,1.926605504587156,4.337614678899082,18.976146788990825,9.790825688073394,18.976146788990825,16.693577981651377,31261200000.0,35069200000.0,23.19080118694362,7.624682926829268,50.831219512195126,59.54514285714286,6.045484432411526,6.045484432411526,8.553463414634146,46.696671105193076,57.02308943089431,66.7984761904762,0.010780136399114557,0.01679398103719627,0.8731386578998259,0.2565924073653103,5.0705725699067905,1.5282901554404145,18.08823529411765,1.7982456140350878,0.003134876460276637,0.29080118694362017,0.2326829268292683,0.03,0.33422368720163675,-0.14634146341463414,-0.02195121951219512,-0.72,0.006097560975609756,22.97878024146202,0.04804169506577324,0.028766538625693554,-16.40366972477064,2549000000.0,2668000000.0,-1673000000.0,0.8731386578998259,3123500000.0,0.0,1871000000.0,72.13170731707318,0.0,73.36399474375821,1.2477175897748023,0.0,1.2267598065556153,0.0651711467801199,-0.3302752293577982
PPG,2015-03-31,2014,Q4,13.404099560761347,1.1786237188872621,-1.5702781844802343,-1.8338213762811126,4.282576866764275,18.587115666178622,10.080527086383603,18.587115666178622,17.104685212298683,30808764000.0,34717764000.0,23.919847826086954,8.413097760786455,-71.81530069930069,-61.49453892215569,6.067105947223316,6.067105947223316,9.480547241944294,59.96159585492228,-80.92718881118881,-69.29693413173652,0.010451571507380174,-0.016261606599992134,0.9145332808192201,0.26738830032243205,6.751295336787565,1.4841818562748796,15.310344827586206,-1.3159509202453987,0.002953704991216136,0.2826086956521739,0.24959038776624795,0.03249590387766248,0.33498387839705207,0.16783216783216784,-0.019661387220098307,-0.6,0.004096122337520481,22.201629360743564,0.0346239409060247,0.027878787878787878,-16.342423133235723,2311000000.0,2754000000.0,-1712000000.0,0.9145332808192201,2888000000.0,1091500000.0,1853000000.0,72.77170944838886,0.0,81.98062953995158,1.236744343127322,0.0,1.097820308346624,0.06341079165025601,-0.2635431918008785
PPG,2014-12-31,2014,Q3,13.499635833940276,0.3022578295702841,1.788055353241078,0.9541150764748726,4.308084486525856,18.86380189366351,-3.448652585579024,18.86380189366351,14.821558630735616,31735522000.0,35074522000.0,95.58892168674697,8.560971675209064,64.63446435845214,121.12794656488549,6.126548648648648,6.126548648648648,9.461700026975992,185.57948148148148,71.4348716904277,133.8722213740458,0.0026153658351672935,0.008255733118238925,0.777027027027027,0.2944403803950256,17.666666666666668,1.410203661797984,9.133333333333333,5.336956521739131,0.002898959720908325,1.108433734939759,0.25141623954680337,0.03398974912328028,0.45442574981711775,-0.4663951120162933,-0.06177502023199353,-1.8617886178861789,0.005395198273536552,11.326471908807584,0.19560797703111665,0.0111289890050952,-15.288601602330663,1994000000.0,-947000000.0,-1550000000.0,0.777027027027027,2891500000.0,1091500000.0,1865000000.0,68.34367413002428,90.74826789838338,75.86605080831409,1.316873889875666,0.9917544663307375,1.1863013698630136,0.016023166023166023,-0.8339402767662054
PPG,2014-09-30,2014,Q2,14.236613603473227,1.3422575976845152,2.301013024602026,1.8451519536903038,10.991316931982634,22.145441389290884,18.324891461649784,22.145441389290884,12.282923299565846,27189468000.0,28069468000.0,18.321743935309975,6.909648792884371,42.75073584905661,53.312682352941174,4.441997712792028,4.441997712792028,7.133282846251588,51.128357012750456,44.13438364779874,55.038172549019606,0.013644989302475503,0.018757262922540447,0.5469694494363666,0.19593843272663428,1.6029143897996356,1.8174019607843137,11.191489361702128,1.6605744125326372,0.003383663115438669,0.24797843665768193,0.23913595933926302,0.030495552731893267,0.2441622285948382,-0.19811320754716982,-0.03202033036848793,-1.0588235294117647,0.0038119440914866584,25.86136030015027,0.042636334026168295,0.02872628726287263,-5.909913169319826,4002000000.0,5065000000.0,1048000000.0,0.5469694494363666,3076000000.0,0.0,1934500000.0,67.88310038119441,0.0,76.9179004037685,1.3258086253369272,0.0,1.1700787401574804,0.06061101127266787,-0.4558610709117221
PPG,2014-06-30,2014,Q1,14.725829725829726,1.3924963924963925,0.8585858585858586,0.39321789321789324,10.508658008658008,22.481962481962483,18.39105339105339,22.481962481962483,12.377344877344877,29125404000.0,30522404000.0,18.863603626943004,7.1350818226359625,122.37564705882353,267.2055412844037,4.673524390243902,4.673524390243902,7.477316021558059,44.42853566229986,128.2453949579832,280.0220550458716,0.013253035048028862,0.0037424373581221395,0.5428433889602053,0.19554913294797688,2.0334788937409023,1.820838371624345,11.458333333333334,0.5964912280701754,0.003158754467405843,0.23834196891191708,0.2413032827045566,0.030867221950024497,0.247514450867052,-0.542016806722689,-0.031602155805977465,-1.1217391304347826,0.004899559039686428,26.5402743425604,0.04355670410022507,0.02965125211245967,-5.905483405483405,4073000000.0,5098000000.0,1115000000.0,0.5428433889602053,3100000000.0,0.0,1946500000.0,70.20088192062715,0.0,76.65221162185603,1.282035175879397,0.0,1.1741344195519348,0.061938382541720155,-0.4653679653679654
PPG,2014-03-31,2013,Q4,13.069734004313444,4.536304816678649,0.5859094176851186,0.21567217828900073,10.923795830337886,21.53846153846154,17.55212077641984,21.53846153846154,12.361610352264558,26910286000.0,27743286000.0,5.330880744849446,7.401068756875688,165.0937791411043,448.5047666666667,4.491035714285714,4.491035714285714,7.630166666666667,51.56744609665427,170.20420858895704,462.3881,0.04689656587076035,0.0022296307070092084,0.5660881174899867,0.1981655663959806,1.5483271375464684,1.9465615418309241,8.638297872340425,0.5759717314487632,0.0031586435015963786,0.06735340729001585,0.24752475247524752,0.033003300330033,0.2509201378746276,-0.6319018404907976,-0.02832783278327833,-0.865546218487395,0.0049504950495049506,46.886704975582845,0.03291406557948097,0.09842458274840118,-6.015456506110712,4322000000.0,4883000000.0,949000000.0,0.5660881174899867,2876000000.0,1007500000.0,1876500000.0,74.65346534653466,0.0,83.02725968436155,1.2055702917771882,0.0,1.0839813374805598,0.21061415220293725,-0.3702372393961179
PPG,2013-12-31,2013,Q3,13.146306818181818,0.9019886363636364,1.8075284090909092,0.8984375,6.196732954545454,17.514204545454547,14.236505681818182,17.514204545454547,12.265625,26704128000.0,28994128000.0,26.283590551181103,7.213432739059968,52.463905697445966,105.54991304347826,5.414462287104622,5.414462287104622,7.832017287952458,53.10279853479854,56.96292337917485,114.60129644268774,0.009511638050866144,0.009474190656965096,0.6905920519059205,0.2147134842085356,4.194139194139194,1.7446191051995164,9.041666666666666,1.8049645390070923,0.003220475875490112,0.33858267716535434,0.2585089141004862,0.03403565640194489,0.2740339154006178,-0.5029469548133595,-0.06915180983252296,-2.048,0.005942733657482442,18.853283618148268,0.039352118309725105,0.02205626953803404,-9.936079545454545,3079000000.0,4009000000.0,-293000000.0,0.6905920519059205,2929000000.0,1007500000.0,1851000000.0,66.51539708265801,86.02941176470587,77.87476280834915,1.3530701754385965,1.0461538461538462,1.155701754385965,0.05150040551500405,-0.9090909090909091
PPG,2013-09-30,2013,Q2,13.896648044692737,0.7891061452513967,2.7513966480446927,2.388268156424581,7.852653631284916,18.19483240223464,3.795391061452514,18.19483240223464,12.021648044692737,23922992000.0,25755992000.0,26.463486725663717,6.010802010050251,30.3591269035533,34.97513450292398,4.590863941661869,4.590863941661869,6.471354773869347,44.871066202090596,32.685269035533,37.654959064327485,0.00944697887287677,0.028591741367467748,0.6515064287085013,0.25694391886778173,3.1933797909407664,1.861365719523373,11.166666666666666,3.1646586345381524,0.003678469649615734,0.3893805309734513,0.2422110552763819,0.030904522613065328,0.3325512752592144,-0.1319796954314721,-0.02613065326633166,-0.8739495798319328,0.0,17.973514301869518,0.050188511514883495,0.025626488263975507,-7.6902932960893855,3759000000.0,1087000000.0,391000000.0,0.6515064287085013,3172500000.0,0.0,1870000000.0,70.59798994974874,0.0,75.52278820375335,1.2748238308776425,0.0,1.1916932907348243,0.04336979466513145,-0.36312849162011174
PPG,2013-06-30,2013,Q1,14.278242677824268,1.1889818688981868,2.0327754532775453,1.7189679218967922,6.209902370990237,17.580195258019526,14.9721059972106,17.580195258019526,11.94560669456067,21286296000.0,23422296000.0,15.605788856304986,5.1981186813186815,36.51165694682676,43.17707099391481,4.221796112653709,4.221796112653709,5.719730402930403,35.488327272727275,40.175464837049745,47.509728194726165,0.016019696428162044,0.023160440877078848,0.6701705672352242,0.2103199302875638,3.2363636363636363,1.8777398928397466,11.127659574468085,1.5714285714285714,0.004087136625366855,0.25513196480938416,0.23956043956043957,0.03028083028083028,0.26833063612598035,-0.15437392795883362,-0.02197802197802198,-0.7258064516129032,0.0,21.686562701433107,0.047119760244922794,0.029008932369204595,-8.130230125523013,3604000000.0,4294000000.0,249000000.0,0.6701705672352242,3023500000.0,0.0,1780000000.0,70.83516483516483,0.0,71.52368758002561,1.2705553831833696,0.0,1.2583243823845327,0.06763189210630702,-0.3138075313807531
PPG,2013-03-31,2012,Q4,11.399726214921287,8.247775496235455,-0.30458590006844627,-0.5270362765229295,8.145106091718,16.38261464750171,15.636550308008214,16.38261464750171,11.820670773442847,19600776000.0,20980776000.0,2.033275518672199,5.884351846292405,-220.23343820224719,-127.27776623376623,4.094584499686651,4.094584499686651,6.298641849294506,43.89283682008368,-235.73905617977528,-136.2388051948052,0.12295431568627692,-0.007856831790741346,0.7104658449968665,0.2211888657648283,2.8870292887029287,2.072980949825597,6.886792452830188,-0.35039370078740156,0.004285544613131643,0.034854771784232366,0.23926748724106875,0.03452416691684179,0.24239073881373568,0.7303370786516854,-0.019513659561693184,-0.6074766355140186,0.0,55.138034714827164,0.03560587206926535,0.20688471113400292,-5.930869267624915,3999000000.0,4569000000.0,646000000.0,0.7104658449968665,2818500000.0,916000000.0,1692000000.0,76.30141098769138,0.0,78.48998459167952,1.1795325779036827,0.0,1.146643109540636,0.5034468351786088,-0.22245037645448323
PPG,2012-12-31,2012,Q3,11.836469824789098,0.736534717715769,2.426995457495133,1.826735885788449,7.764438676184296,13.1829980532122,1.54445165476963,13.1829980532122,13.189487345879298,20858976000.000004,23475976000.000004,22.972440528634365,5.71792105263158,27.88633155080214,37.04969094138544,5.133885306423825,5.133885306423825,6.435300438596492,46.03132549019609,31.384994652406423,41.69800355239788,0.010882605167195166,0.02699077845432105,0.9869554516367216,0.33012266403227136,5.131372549019608,1.728068207314337,7.581818181818182,2.9565217391304346,0.004362630265263261,0.4008810572687225,0.0,0.03234649122807018,0.3166213879970363,-0.24732620320855614,-0.05071271929824561,-1.5811965811965811,0.0,14.780698710474718,0.03866383452182268,0.027346102879171184,-8.044289422452952,3245000000.0,476000000.0,-123000000.0,0.9869554516367216,3001500000.0,916000000.0,1731500000.0,69.39967105263158,74.94545454545455,68.97272727272727,1.2968361180234624,1.2008733624454149,1.3048635824436536,0.05587004676347526,-0.600259571706684
PPG,2012-09-30,2012,Q2,12.508132726089785,1.1027976577748861,1.9681197137280417,1.7078724788549122,6.541964866623292,12.560182173064412,1.1711125569290826,12.560182173064412,13.19128171763175,17761572000.0,20370572000.0,13.098504424778762,4.619394538361508,29.357970247933885,33.831565714285716,4.600251748251748,4.600251748251748,5.297938101430429,31.928796238244516,33.67036694214876,38.80108952380952,0.019086148455778575,0.029558194511161512,1.0362600362600363,0.2563757529155453,4.089341692789969,1.7320712694877505,9.481481481481481,1.6620879120879122,0.0021394502693793094,0.11209439528023599,0.0,0.029388816644993498,0.24170190952197873,-0.1322314049586777,-0.02080624187256177,-0.6896551724137931,0.0,17.653757060122626,0.048775534346070536,0.028646273449383135,-20.11060507482108,3287000000.0,360000000.0,-3697000000.0,1.0362600362600363,3250000000.0,0.0,1776000000.0,74.66840052015604,0.0,69.89947552447552,1.2053291536050157,0.0,1.2875633089476646,0.08780108780108781,-0.26024723487312945
PPG,2012-06-30,2012,Q1,12.907963446475195,1.181462140992167,1.422976501305483,1.1684073107049608,4.069843342036553,11.295691906005223,-0.1174934725848564,11.295691906005223,11.948433420365536,16257584000.0,18851584000.0,11.227613259668509,4.110640707964602,37.28803669724771,45.412245810055865,4.69736607916787,4.69736607916787,4.766519342604298,27.80469616519174,43.23757798165138,52.65805586592179,0.02226653111557043,0.022020492097718825,1.0433400751227968,0.3222956087111746,3.825958702064897,1.5664841182913471,11.1,1.101010101010101,0.007811738816788521,0.35082872928176795,0.0,0.02857142857142857,0.3312209925026776,-0.17889908256880735,-0.019721871049304677,-0.6842105263157895,0.0,17.32836483120316,0.05897056676998635,0.048311757640464435,-9.503916449086162,2586000000.0,-36000000.0,-378000000.0,1.0433400751227968,3273000000.0,0.0,1802500000.0,75.32237673830593,0.0,67.92091836734694,1.1948640483383686,0.0,1.3250704225352112,0.10459404796301647,-0.2545691906005222
PPG,2012-03-31,2011,Q4,12.277486910994764,0.04253926701570681,-0.006544502617801047,-0.22905759162303665,3.3835078534031413,10.775523560209423,-1.1289267015706805,10.775523560209423,12.133507853403142,14638240000.0,17317240000.0,281.50461538461536,3.901449893390192,-7319.12,-209.1177142857143,4.445259641664136,4.445259641664136,4.61546908315565,30.327915936952714,-8658.62,-247.38914285714284,0.0008880849063821881,-0.004781995649750243,1.1105375037959309,0.2465282459215316,4.691768826619965,1.5234752084247476,8.686274509803921,-0.0392156862745098,0.006968050803921782,7.846153846153846,0.0,0.029584221748400853,0.2602804368342996,34.0,-0.01812366737739872,-0.576271186440678,0.0,3.2114816929480132,0.016247707716179997,0.0011847261459947142,-22.715968586387433,2386000000.0,-345000000.0,-4374000000.0,1.1105375037959309,3033000000.0,806000000.0,1718500000.0,77.62260127931769,0.0,73.88963660834455,1.1594561186650185,0.0,1.2180327868852459,0.0039477679927118125,-0.22251308900523561
PPG,2011-12-31,2011,Q3,11.508507853403142,0.7068062827225131,2.156413612565445,1.649214659685864,4.849476439790576,10.631544502617801,-1.1092931937172774,10.631544502617801,12.215314136125654,12755744000.0,14980744000.0,14.763592592592593,3.6268820017059995,19.3562124430956,25.309015873015873,3.926052323791936,3.926052323791936,4.259523457492181,34.67764814814815,22.732540212443094,29.72369841269841,0.0169335477413156,0.039511611396403065,1.1332717759310558,0.2560144625225977,5.150462962962963,1.808211777417612,6.019607843137255,2.7573221757322175,0.003998198772255071,0.2361111111111111,0.0,0.030992323002559,0.2631761924628007,-0.23520485584218512,-0.04407165197611601,-1.3478260869565217,0.0,13.002882569400557,0.03727537639630889,0.020383127300179295,-21.361256544502616,2992000000.0,-339000000.0,-4242000000.0,1.1332717759310558,2959000000.0,806000000.0,1672000000.0,72.41967586010804,66.42857142857143,66.22252747252747,1.242756183745583,1.3548387096774193,1.359054138145613,0.0664819944598338,-0.5071989528795812
PPG,2011-09-30,2011,Q2,12.27359693877551,0.9917091836734694,1.6741071428571428,1.3520408163265305,4.266581632653061,11.677295918367347,0.10841836734693877,11.677295918367347,11.935586734693878,11079488000.0,13470488000.0,8.90634083601286,2.878536762795531,21.103786666666668,26.130867924528303,3.0255292190060072,3.0255292190060072,3.499737074564822,22.71583136593592,25.65807238095238,31.770018867924527,0.028069889150112354,0.03826891639758083,1.0081922446750409,0.25386784019803343,4.032040472175379,1.8321013727560718,9.137254901960784,1.5350877192982457,0.008484146559841033,0.3022508038585209,0.0,0.028059236165237724,0.26624492883174034,-0.19238095238095237,-0.026240581969342685,-0.8706896551724138,0.0,16.141896916445305,0.046907946554397464,0.029144410083403616,-19.497767857142858,3152000000.0,34000000.0,-3697000000.0,1.0081922446750409,3216500000.0,0.0,1779000000.0,72.20576773187841,0.0,66.43858903527412,1.2464378238341969,0.0,1.3546344271732873,0.08492626979792463,-0.32206632653061223
PPG,2011-06-30,2011,Q1,12.597977243994944,1.0745891276864727,1.2895069532237673,1.0366624525916561,3.9348925410872315,12.812895069532237,0.4329962073324905,12.812895069532237,11.943742098609356,14364560000.0,17106560000.0,10.562176470588236,3.6037531359759156,35.20725490196079,43.79439024390244,3.5433053774050323,3.5433053774050323,4.291660812844957,27.153269841269843,41.927843137254904,52.15414634146342,0.02366936404595755,0.02283397472668846,0.9185989146521953,0.24392480513525905,4.352380952380952,1.845741968383478,9.290909090909091,1.2,0.008423508969296658,0.3558823529411765,0.0,0.027596588058203714,0.2718936267767079,-0.19607843137254902,-0.02007024586051179,-0.6722689075630253,0.0,17.600950231675178,0.04887940344561584,0.030586541921554515,-19.958122629582807,3317000000.0,137000000.0,-3740000000.0,0.9185989146521953,3235500000.0,0.0,1788000000.0,75.52684395383844,0.0,67.80719900703352,1.1916292974588938,0.0,1.327292696320703,0.08386778490379872,-0.2528445006321112
PPG,2011-03-31,2010,Q4,11.013092269326684,0.7107231920199502,-0.486284289276808,-0.6546134663341646,4.311097256857855,11.739401496259351,-0.3179551122194514,11.739401496259351,12.91147132169576,15273288000.0,18566288000.0,16.747026315789473,4.3230365128785735,-97.9056923076923,-72.72994285714286,4.055573021773766,4.055573021773766,5.255105575997735,36.69226877470356,-119.01466666666667,-88.41089523809524,0.014928023356856756,-0.013749495197104906,1.0857673924588422,0.27074091240150966,6.507905138339921,1.8895705521472392,7.339622641509434,-0.6842105263157895,0.005827167012106366,0.39035087719298245,0.0,0.029153693744692896,0.2712706084883798,0.34615384615384615,-0.015284460798188508,-0.46153846153846156,0.0,13.701385343682134,0.036542315218317765,0.020715973105578774,-20.271197007481298,3335000000.0,-102000000.0,-4024000000.0,1.0857673924588422,2952000000.0,813000000.0,1664000000.0,79.63204075856214,0.0,74.25952045133992,1.1301983365323096,0.0,1.2119658119658119,0.0605416887944769,-0.16832917705735662
PPG,2010-12-31,2010,Q3,10.533042394014963,0.6390274314214464,1.9077306733167083,1.4432668329177056,6.165835411471321,11.340399002493765,-0.4800498753117207,11.340399002493765,12.852244389027431,13486432000.0,16216432000.0,16.44686829268293,3.9912494820952946,22.03665359477124,29.12836285097192,3.7071006047278727,3.7071006047278727,4.799180822728618,35.87706194690266,26.49743790849673,35.02469114470842,0.015200462212689019,0.034330800021829345,1.1190214403518417,0.2718530884808013,6.039823008849558,1.9470344827586208,5.769230769230769,2.9853658536585366,0.01082569503928096,0.7121951219512195,0.0,0.030778336786031372,0.2662437395659432,-0.2434640522875817,-0.04409588635691033,0.0,0.0,12.769243753323972,0.03049053656657836,0.018656716417910446,-19.619700748129677,3433000000.0,-154000000.0,-4084000000.0,1.1190214403518417,2868000000.0,813000000.0,1605500000.0,73.99230541580349,70.15340364333653,67.8667305848514,1.2163426925845933,1.2829028290282902,1.326128417037508,0.05634964266080264,-0.4644638403990025
PPG,2010-09-30,2010,Q2,10.53593179049939,0.7978075517661388,1.0079171741778319,0.8099878197320342,2.8319123020706454,11.79658952496955,0.243605359317905,11.79658952496955,9.686358099878197,11953760000.0,14158760000.0,11.406259541984733,3.454843930635838,36.11407854984894,44.938947368421054,3.085637583892617,3.085637583892617,4.092127167630058,27.439457364341084,42.77570996978852,53.22842105263158,0.021917789883685132,0.022252412630000936,0.8092410944759938,0.2220254957507082,4.273255813953488,1.7896678966789668,8.630434782608695,1.2633587786259541,0.007779978851842433,0.3549618320610687,0.0,0.028034682080924855,0.2848441926345609,-0.19637462235649547,-0.01878612716763006,0.0,-0.0023121387283236996,14.55186189744755,0.04284794457459211,0.02594573182808477,-18.424177831912303,2782000000.0,80000000.0,-3713000000.0,0.8092410944759938,2869500000.0,0.0,1589500000.0,76.94219653179191,0.0,69.9335863377609,1.169709263015551,0.0,1.286935286935287,0.06763035622096025,-0.19792935444579782
PPG,2010-06-30,2010,Q1,10.453446191051995,0.8222490931076178,1.2726723095525998,1.1275695284159613,2.370012091898428,10.429262394195888,-0.3778718258766626,10.429262394195888,9.437726723095526,9993468000.0,12285468000.0,9.185172794117648,2.889956043956044,23.737453681710214,26.79213941018767,2.8966573913043483,2.8966573913043483,3.552766917293233,22.750866666666667,29.181634204275536,32.936911528150134,0.027217778653016146,0.0373243802852023,0.8915942028985507,0.23013616639233878,4.2444444444444445,1.7450340942780906,9.173913043478262,1.5477941176470589,0.011807712797999652,0.4338235294117647,0.0,0.028050896471949104,0.28161005536435735,-0.11401425178147269,-0.013880855986119144,0.0,0.0,13.89056009568014,0.047242694643383154,0.028327431785044783,-18.400090689238212,2513000000.0,-125000000.0,-3841000000.0,0.8915942028985507,2795000000.0,0.0,1570000000.0,72.37998843262001,0.0,66.80635838150289,1.2434376123696511,0.0,1.3471771576898117,0.07884057971014492,-0.14510278113663846
PPG,2010-03-31,2009,Q4,9.42133815551537,0.09041591320072333,-0.162748643761302,-0.298372513562387,2.076552139843279,10.82579867389994,-0.7263411693791441,10.82579867389994,9.66847498493068,10849860000.0,13323860000.0,90.41550000000001,3.47084452975048,-200.92333333333335,-109.59454545454545,3.020562360801782,3.020562360801782,4.262271273192578,37.42657303370787,-246.73814814814816,-134.58444444444444,0.0027650126361077466,-0.009124541699155565,0.8805679287305123,0.2299360279150916,6.949438202247191,1.732592159157402,5.222222222222222,-1.8,0.00829503790832324,3.0,0.0,0.030710172744721688,0.2929630706600756,0.8333333333333334,-0.014395393474088292,0.0,0.0,4.69292559579059,0.009963852737634114,0.0030845157310302285,-19.203586497890296,2504000000.0,-241000000.0,-4045000000.0,0.8805679287305123,2718500000.0,692000000.0,1573500000.0,80.87332053742801,0.0,74.02777777777777,1.1128515485938055,0.0,1.2157598499061915,0.008351893095768375,-0.13562386980108498
PPG,2009-12-31,2009,Q3,9.391199517781796,0.4279686558167571,1.7631103074141048,1.5009041591320071,3.1977094635322483,11.311030741410487,-0.8378541289933695,11.311030741410487,10.232067510548523,9711786000.0,12000786000.0,17.098214788732395,3.116747753530167,16.60134358974359,19.501578313253013,2.5877394084732215,2.5877394084732215,3.8513433889602053,34.48501724137931,20.514164102564102,24.097963855421686,0.014621409491518862,0.0512779008927915,0.8915534239275247,0.23497191011235954,6.577586206896552,1.6720715683533687,4.020408163265306,4.119718309859155,0.014312506474092407,0.9788732394366197,0.0,0.03273427471116817,0.2949438202247191,-0.14871794871794872,-0.0279204107830552,0.0,0.0,10.43634270239474,0.022616565713480773,0.014143426294820717,-19.626280892103676,2404000000.0,-278000000.0,-4337000000.0,0.8915534239275247,2740500000.0,692000000.0,1602000000.0,75.90500641848523,64.40537745604964,72.03722854188211,1.1856925418569255,1.3973988439306357,1.2493540051679586,0.03783639754862776,-0.26220614828209765
PPG,2009-09-30,2009,Q2,9.76089588377724,0.4812348668280872,1.9794188861985471,1.8311138014527846,2.7179176755447942,10.708232445520581,-1.5738498789346247,10.708232445520581,10.847457627118644,9617944000.0,12256944000.0,15.122553459119496,2.9823082170542636,14.70633639143731,15.897428099173554,2.7184691916336914,2.7184691916336914,3.8006027906976745,27.730642533936653,18.741504587155962,20.259411570247934,0.016531599684922266,0.06290325666275454,0.9997173544375353,0.24277575674377103,5.970588235294118,1.614887567846989,6.085106382978723,4.113207547169812,0.011125038781677248,0.6729559748427673,0.0,0.02945736434108527,0.29198984144416223,-0.07492354740061162,-0.015193798449612403,0.0,0.0,10.767842557118707,0.02719434628975265,0.015414444983034415,-21.09337167070218,2379000000.0,-520000000.0,-4587000000.0,0.9997173544375353,2850000000.0,0.0,1664000000.0,79.61860465116278,0.0,74.93212669683258,1.1303890641430074,0.0,1.201086956521739,0.04494064443188242,-0.1483050847457627
PPG,2009-06-30,2009,Q1,9.508547008547009,0.4456654456654457,1.2118437118437118,1.0531135531135531,3.2112332112332114,9.691697191697191,-2.3626373626373627,9.691697191697191,12.976190476190476,7190820000.0,10340820000.0,12.313047945205478,2.3084494382022474,18.112896725440805,20.84295652173913,2.264825196850394,2.264825196850394,3.319685393258427,26.789689119170983,26.047405541561712,29.973391304347825,0.020303664950589783,0.04797783841064023,1.3234645669291338,0.2884998283556471,8.160621761658032,1.5655777669429547,5.448979591836735,2.719178082191781,0.01348942123429595,0.6643835616438356,0.0,0.03113964686998395,0.28438036388602816,-0.1309823677581864,-0.016693418940609953,-0.5909090909090909,0.0,9.858155371788692,0.024176735618290153,0.014007483450062362,-21.897893772893774,2320000000.0,-774000000.0,-4775000000.0,1.3234645669291338,2780000000.0,0.0,1674500000.0,82.25682182985554,0.0,79.28345626975764,1.094134176325957,0.0,1.1351674641148326,0.045984251968503934,-0.15873015873015872
PPG,2009-03-31,2008,Q4,8.484756097560975,-0.3384146341463415,-0.8871951219512195,-1.0426829268292683,1.6189024390243902,8.628048780487806,-2.832317073170732,8.628048780487806,11.899390243902438,6051600000.0,9375600000.0,-13.629729729729728,2.174487962630255,-20.79587628865979,-17.694736842105264,2.1383745583038865,2.1383745583038865,3.368882500898311,37.352988047808765,-32.21855670103093,-27.4140350877193,-0.01834225659329764,-0.05651397977394408,1.362190812720848,0.2833933691097552,13.243027888446216,1.4534005037783375,2.7708333333333335,2.6216216216216215,0.014376363275827881,-0.7837837837837838,0.0,0.03377650017966224,0.28905388517238845,0.17525773195876287,-0.018325547969816745,-0.5795454545454546,0.0,8.105356522542689,0.016310551389085423,-0.011477613483610795,-21.93826219512195,1800000000.0,-929000000.0,-4830000000.0,1.362190812720848,2758500000.0,701000000.0,1689500000.0,87.73625583902263,0.0,87.85215366705472,1.0258016955399927,0.0,1.024448419797257,-0.0392226148409894,-0.15548780487804878
PPG,2008-12-31,2008,Q3,9.71951219512195,0.21646341463414634,1.670731707317073,1.2195121951219512,3.1128048780487805,10.161585365853659,-2.3780487804878048,10.161585365853659,11.926829268292684,6960160000.0,9851160000.0,24.507605633802815,2.183237139272271,12.701021897810218,17.4004,2.088256825682568,2.088256825682568,3.0900752823086575,42.279656652360515,17.976569343065695,24.6279,0.010200914921496058,0.0574699432196961,1.1737173717371736,0.26615866104231867,12.407725321888412,1.5078384798099762,0.0,7.71830985915493,0.012499712650283903,1.2253521126760563,0.0,0.0335633626097867,0.27983399101918627,-0.27007299270072993,-0.04642409033877039,0.0,0.0,7.035002344971445,0.01591614906832298,0.006707605101558809,-22.53048780487805,2138000000.0,-780000000.0,-5017000000.0,1.1737173717371736,3128500000.0,2265000000.0,1760000000.0,79.15934755332496,62.18827008378512,75.49531789058649,1.1369472182596292,1.4472182596291012,1.1921269095182139,0.0213021302130213,-0.45121951219512196
PPG,2008-09-30,2008,Q2,12.826350941105039,0.3551912568306011,1.3691560412871888,1.0989678202792956,1.5664845173041895,12.76259866423801,0.2975106253794778,12.76259866423801,12.170613236187007,9605304000.0,13036304000.0,20.524153846153848,2.2734447337278105,21.29779157427938,26.533988950276242,2.284801141769743,2.284801141769743,3.0855157396449706,19.692302114803624,28.90533037694013,36.01188950276243,0.01218077012450621,0.037687510983514944,0.9388677450047573,0.26232885816828394,5.182779456193353,1.472141418661893,6.354838709677419,3.8547008547008548,0.00884927744088058,0.7264957264957265,0.0,0.02698224852071006,0.28392928353050645,-0.1973392461197339,-0.02106508875739645,0.0,0.0,10.099315711940244,0.03286006189817443,0.010859476517542231,-20.22237401335762,2110000000.0,98000000.0,-4097000000.0,0.9388677450047573,3680000000.0,3222000000.0,1971000000.0,73.5550295857988,104.22806368011847,60.5775638652351,1.223573704025485,0.8634910485933504,1.4856985698569858,0.027830637488106564,-0.27018822100789314
PPG,2008-06-30,2008,Q1,13.59052247873633,0.7594167679222357,0.9416767922235723,0.6834750911300121,0.8080194410692588,14.046172539489673,0.6652490886998785,14.046172539489673,13.125759416767922,9441456000.0,13431456000.0,9.441456,2.1102941439427805,30.456309677419355,41.96202666666667,2.0418373702422143,2.0418373702422143,3.0021135449262406,24.070709677419355,43.327277419354836,59.69536,0.026478966803425232,0.02383107012308271,0.9204152249134948,0.26260257913247365,7.150537634408602,1.4944151738672287,6.553846153846154,1.24,0.00910876458037828,0.344,0.0,0.02637460885113992,0.2837662738322947,-0.27419354838709675,-0.01899865891819401,-0.6640625,0.0,15.492102065613608,0.03384895047331595,0.021536871123363197,-21.66084447144593,2346000000.0,219000000.0,-4298000000.0,0.9204152249134948,3670000000.0,3159500000.0,2050500000.0,78.59409924005364,105.49310710498409,67.57158006362673,1.1451241361658562,0.8531363088057901,1.3319209039548023,0.05406574394463668,-0.25820170109356017
PPG,2008-03-31,2007,Q4,11.306990881458967,0.303951367781155,0.14893617021276595,-0.0364741641337386,0.9057750759878419,13.29483282674772,-0.060790273556231005,13.29483282674772,13.50759878419453,9952250000.0,14098250000.0,24.880625000000002,2.6753360215053763,203.10714285714286,-829.3541666666666,2.2753200731595795,2.2753200731595795,3.7898521505376346,39.49089635854342,287.71938775510205,-1174.8541666666667,0.01004797910020347,-0.0012057574920244167,1.0160036579789666,0.2795144348701176,11.61344537815126,1.5469723953695458,0.0,0.49,0.00854078223517295,0.85,0.0,0.029838709677419355,0.28762815271400716,-1.2448979591836735,-0.016397849462365593,0.0,0.0,9.53530854233437,0.017560881362196853,0.008829242450997704,-22.75,2457000000.0,-20000000.0,-4397000000.0,1.0160036579789666,2915500000.0,2576500000.0,1672500000.0,83.05645161290322,111.49752475247526,73.40346534653466,1.0836003495484998,0.8071928071928072,1.2261001517450683,0.022862368541380886,-0.18541033434650456
PPG,2007-12-31,2007,Q3,8.76570001227198,0.610000000854,1.36945000191723,1.04005000145607,6.80760000953064,12.66055001772477,6.69780000937692,12.66055001772477,9.2110000128954,11514754082.24,14008754082.24,14.3934426028,4.006525428754349,25.645332031714922,33.767607279296186,2.7739711111153937,2.7739711111153937,4.8743055261795405,40.72312233209302,31.199897733273943,41.08139027049853,0.01736902052545558,0.029614179995901765,0.7275355336063599,0.239132156148547,7.25,1.5310019309161125,0.0,2.245,0.007381833723318622,0.425,0.0,0.031315240083507306,0.16533375564177685,-0.24053452115812918,-0.037578288100208766,0.0,0.0,13.182035094648509,0.027379112597734786,0.01897353192296746,-11.073025015502235,2475000000.0,2196000000.0,-1209000000.0,0.7275355336063599,2447500000.0,2130500000.0,1376500000.0,75.09394572025053,104.82123510292524,66.6955579631636,1.1984987489574646,0.8586046511627907,1.3494152046783625,0.0481811611659841,-0.32940000046116
PPG,2007-09-30,2007,Q2,8.585766423357665,0.5809002433090025,0.9671532846715328,0.7816301703163017,0.690389294403893,12.174574209245742,6.240875912408759,12.174574209245742,4.133211678832117,12645648000.0,13777648000.0,16.551895287958114,4.479506907545165,39.76618867924528,49.20485603112841,3.159042717961529,3.159042717961529,4.880498760184201,32.49445283018868,43.32593710691824,53.609525291828795,0.015104010486453523,0.020323197356118088,0.3394953784661504,0.12459888145227835,2.669811320754717,1.7862796833773087,0.0,1.6649214659685865,0.006721680059416488,0.44502617801047123,0.0,0.029401346085724405,0.1917117447510773,-0.1918238993710692,-0.021608218207580587,-0.7439024390243902,0.0,12.614467694180481,0.044171533232754544,0.021665154264972775,-12.079531630170317,2384000000.0,2052000000.0,-1348000000.0,0.3394953784661504,2540000000.0,2128000000.0,1432500000.0,79.6068012752391,107.82633371169126,70.74347332576617,1.130556668001602,0.8346755092373283,1.272202166064982,0.04771421433924557,-0.18552311435523114
PPG,2007-06-30,2007,Q1,9.626820388349515,0.7554611650485437,0.9921116504854369,0.7190533980582524,0.5976941747572816,11.180218446601941,5.358009708737864,11.180218446601941,4.147451456310679,12544576000.0,13714576000.0,12.594955823293175,3.9535379766782226,38.362617737003056,52.93070042194093,3.4042268656716423,3.4042268656716423,4.322274188465175,28.453477178423235,41.940599388379205,57.86740928270042,0.019849216107423635,0.01889262737935503,0.37096336499321575,0.12794833395731936,2.4273858921161824,1.6715057393652937,0.0,1.3132530120481927,0.006616405369141213,0.3333333333333333,0.0,0.027734005672864798,0.19683639086484464,-0.27522935779816515,-0.028364323983611724,0.0,-0.003151591553734636,13.78549851098103,0.054111982853075495,0.029017597016664724,-11.956158980582524,1989000000.0,1766000000.0,-1864000000.0,0.37096336499321575,2508500000.0,2111500000.0,1469500000.0,73.26504884966909,95.71145265245414,66.03867129400099,1.2284165698799845,0.9403263403263403,1.3628378378378379,0.06757123473541383,-0.27305825242718446
PPG,2007-03-31,2006,Q4,8.87128866848219,0.5900000005778351,-0.29804123740529814,-0.5839175263450739,0.553505155181268,10.449690731883718,4.589226808618315,10.449690731883718,4.452371138381189,11557796598.85,12839796598.85,14.894067782023194,3.9622202944292084,-117.93669998826529,-60.19685728567708,3.3637359135186258,3.3637359135186258,4.4017129238429895,30.790879133932854,-131.01833264132654,-66.87394061901041,0.01678520627532959,-0.0166121629116664,0.42607683352735737,0.14151764137264378,3.0743405275779376,1.6035944387928112,0.0,-0.5051546391752577,0.007094777910190858,0.422680412371134,0.0,0.028796708947548853,0.20222329627839536,0.9591836734693877,-0.03222488858416181,0.0,0.0,11.777930404006291,0.04774635568513119,0.023506603659275416,-12.186237125337037,1780000000.0,1509000000.0,-2015000000.0,0.42607683352735737,2301000000.0,1579500000.0,1424500000.0,75.09770311964347,99.21485411140584,69.66047745358091,1.1984387838948234,0.9071222329162656,1.2919808087731324,0.056461001164144355,-0.28587628893977574
PPG,2006-12-31,2006,Q3,8.433350523723384,0.4774742272717531,1.3837628879531698,0.9610309287762674,1.3837628879531698,9.835360834374837,4.25773196293283,9.835360834374837,3.938402065712868,10554915243.9,11394915243.9,16.807189878821656,3.8063163519293184,23.19761592065934,33.401630518670885,3.2637338416512063,3.2637338416512063,4.109237376090876,32.37191830653409,25.043769766813185,36.059858366772154,0.014874586519369255,0.029938658217329203,0.4004329004329004,0.12922861989821374,2.3863636363636362,1.6476498026551847,0.0,2.8980891719745223,0.0074846645543323,0.5031847133757962,0.0,0.03137396321673278,0.19778465223031633,-0.3054945054945055,-0.05012621709340065,0.0,0.0,10.279248735801161,0.038802203105677335,0.019529792262719243,-11.74829898057823,1805000000.0,1400000000.0,-2047000000.0,0.4004329004329004,2204000000.0,1578000000.0,1383500000.0,70.36422646952758,53.840619811842835,69.23076923076924,1.2790590405904059,1.6716003700277522,1.3,0.04854669140383426,-0.4227319591769024
PPG,2006-09-30,2006,Q2,8.406000008406,0.27000000027,1.026000001026,0.78000000078,0.948000000948,10.449000010449,4.998000004998,10.449000010449,3.939000003939,11179999988.82,12176999988.82,31.0555555245,3.9900071337687364,32.69005844684211,42.999999957,3.2098765400000002,3.2098765400000002,4.345824407144897,19.8646003080261,35.60526312520468,46.83461534161538,0.008050089453488372,0.023255813976744186,0.3769738730979041,0.134349739077049,1.6264274061990212,1.6510530137981119,0.0,3.8,0.007155635069767442,0.8888888888888888,0.0,0.027837259100642397,0.19922234728333163,-0.23976608187134502,-0.02926481084939329,-0.9647058823529412,7.137758743754462e-05,7.967287814994218,0.056720199163463283,0.011500127779197547,-10.4265000104265,1793000000.0,1666000000.0,-1613000000.0,0.3769738730979041,2244000000.0,2007000000.0,1325000000.0,71.94860813704497,104.2713567839196,69.19597989949749,1.2508928571428573,0.863132530120482,1.3006535947712419,0.025839793281653745,-0.246000000246
PPG,2006-06-30,2006,Q1,8.522428564884564,0.8449999993511608,0.8993214278808782,0.6820357137620083,1.2644821418862011,10.493089277657091,5.459303567236606,10.493089277657091,4.028839282620713,10934911251.0,11850911251.0,9.763313616964284,3.872135712110482,36.69433305704698,48.38456305752212,3.144927020707507,3.144927020707507,4.196498318342776,24.284654202868854,39.76815856040268,52.43766040265487,0.02560606058639881,0.02066774890187904,0.3839516824849008,0.14049673752894126,1.8770491803278688,1.7122820318423049,0.0,1.0642857142857143,0.007224567094019664,0.28214285714285714,0.0,0.02762039660056657,0.18911808040412545,-0.24161073825503357,-0.025495750708215296,-0.8571428571428571,0.0,14.124441926613175,0.06269306158472134,0.036340038935756006,-9.519830349832988,1879000000.0,1809000000.0,-1379000000.0,0.3839516824849008,2143000000.0,1858500000.0,1234000000.0,71.643059490085,99.89124212936463,65.58099599313108,1.2562277580071175,0.9009798865394534,1.3723487824037706,0.08052919183203912,-0.2172857141188699
PPG,2006-03-31,2005,Q4,7.957010858321615,0.5549999992157608,0.10557065202473712,-0.13271739111681238,1.2547826069225898,9.694402160214432,5.055326079813126,9.694402160214432,3.8005434728905363,10499603618.44,11343603618.44,14.265765785923914,3.980137838680819,299.98867481257145,-238.62735496454548,3.2668337331798383,3.2668337331798383,4.300077186671722,25.548656798288288,324.10296052685715,-257.80917314636366,0.01752447108354155,-0.004190634389542544,0.39203484754200374,0.141287284144427,1.9009009009009008,1.780716723549488,0.0,0.19021739130434784,0.007428851872370874,0.42391304347826086,0.0,0.02843062926459439,0.18670105404799284,-2.257142857142857,-0.029946929492039424,0.0,0.0,11.002674529613984,0.0541443083790193,0.025368812905004826,-9.15448368271649,1830000000.0,1676000000.0,-1403000000.0,0.39203484754200374,1954500000.0,1777000000.0,1157000000.0,69.52994692949204,94.63039621525725,63.60141927853341,1.2944062806673209,0.9510686164229472,1.415062761506276,0.05724953329184816,-0.2382880431415495
PPG,2005-12-31,2005,Q3,7.555842380627614,0.3408423908227227,1.0526902159038074,0.769157607608799,2.811195648201571,9.208777160900642,1.028559781155296,9.208777160900642,3.8307065163261758,9597837851.4,10401837851.4,21.234154538495574,3.8314721961676645,27.50096805558739,37.638579809411766,3.143739879266295,3.143739879266295,4.15243028,25.620290274384235,29.804692983954155,40.79152098588235,0.011773485002512012,0.02656848385522622,0.41598427775958075,0.14629650961870752,1.980295566502463,1.7109408258833547,0.0,3.088495575221239,0.008126830355716255,0.6902654867256637,0.0,0.03153692614770459,0.1905310448105057,-0.2693409742120344,-0.0375249500998004,0.0,0.0,8.403671015793565,0.04084606525721765,0.01608083108011954,-7.918552977941175,1670000000.0,1507000000.0,-1501000000.0,0.41598427775958075,1919500000.0,1782500000.0,1117500000.0,67.22155688622755,96.81405208964264,60.99939430648092,1.3388562266167825,0.9296171171171171,1.4754244861483468,0.03701277432034065,-0.28353260829500826
PPG,2005-09-30,2005,Q2,7.543662411493137,0.46499999945207005,1.320955412456199,1.1314012725521705,2.8966242004084366,9.827197440649481,1.8748089149882825,9.827197440649481,3.7111146453085593,9990602162.31,10754602162.31,15.90860216928344,3.9224979043227326,22.400453278721972,26.15340880185864,3.0110313931012658,3.0110313931012658,4.222458642446015,22.88213226023404,24.113457763026904,28.15340880185864,0.01571476848435519,0.038235933509704986,0.37763713080168776,0.1424835114851035,1.625531914893617,1.7443254817987153,0.0,2.0938967136150235,0.007907431275567261,0.5031847133757962,0.0,0.030231645072634473,0.18762792813281784,-0.14349775784753363,-0.02512760109933255,-0.7619047619047619,-0.0027483313702394976,10.139874412518202,0.04993629917510649,0.021976483762597983,-6.912802539625042,1738000000.0,1798000000.0,-1273000000.0,0.37763713080168776,1977500000.0,1689500000.0,1110500000.0,69.54063604240282,99.75836431226766,62.23048327137547,1.2942073170731707,0.9021799888205702,1.446236559139785,0.04731766124171188,-0.18955413990402856
PPG,2005-06-30,2005,Q1,7.761038966078597,0.6750000004383117,0.37987013011679877,0.2016233767543009,2.746753248536853,9.973051954527955,2.089285715642393,9.973051954527955,3.9506493532147076,10738933326.36,11620933326.36,11.622222214675325,4.043273089743976,82.60717943353846,155.63671487478263,3.1464791463111634,3.1464791463111634,4.375351402996988,24.991254465290325,89.39179481815385,168.41932357043478,0.021510516266357926,0.006425219144496523,0.39613243480808674,0.15381114903299203,1.896774193548387,1.8168383340797134,0.0,0.7428571428571429,0.007542648560930701,0.35064935064935066,0.0,0.0286144578313253,0.1881683731513083,-0.46923076923076923,-0.02296686746987952,0.0,0.0,12.307141286982436,0.05457852395942637,0.03237107623318386,-6.6426136406770215,1824000000.0,1880000000.0,-1199000000.0,0.39613243480808674,1953500000.0,1670500000.0,1117500000.0,67.33057228915662,86.72727272727273,60.27272727272727,1.3366884750880725,1.0377358490566038,1.493212669683258,0.06768239085848228,-0.1782467533624979
PPG,2005-03-31,2004,Q4,7.21657895686392,0.2750000003618421,0.40526315842797783,0.20552631605990304,1.9597368446838643,10.273421066149238,2.2868421082721606,10.273421066149238,3.757368425996537,12353454529.199999,13011454529.199999,32.50909086631579,4.955256529963899,88.23896092285715,173.99231731267605,3.4808268608622144,3.4808268608622144,5.219195559245888,23.44406221477477,92.93896092285713,183.25992294647887,0.0076901566096712,0.005747380203017424,0.36573682727528883,0.1438705386832188,1.1855855855855857,1.8134424816889272,0.0,1.4736842105263157,0.006314023321624775,0.8210526315789474,0.0,0.030886482150020055,0.1862114830414542,-0.4928571428571429,-0.027677496991576414,-0.7931034482758621,0.0,7.972878584955306,0.04943406159515662,0.012939253609370744,-7.746315799666205,1888000000.0,1984000000.0,-1149000000.0,0.36573682727528883,1858500000.0,1701000000.0,1103000000.0,69.31407942238268,101.14890885750962,65.2759948652118,1.2984375,0.8897772701313535,1.3787610619469026,0.026768103691180614,-0.1997368423680748
PPG,2004-12-31,2004,Q3,6.979210535498961,0.5297368428022853,0.885789474849723,0.6339473692551939,2.0523684237531166,10.340000013605263,2.13921052913054,10.340000013605263,3.907894741984072,11773090893.599998,12414090893.599998,16.083457504918034,4.883073784155951,38.47415324705882,53.758405906849305,3.2959381001119823,3.2959381001119823,5.148938570551637,33.10424238293333,40.56892448888888,56.685346546118716,0.01554392144372903,0.018601742055610153,0.37793952967525196,0.15114196148678907,1.7093333333333334,1.825303917154435,0.0,1.6721311475409837,0.0065403385309679525,0.4207650273224044,0.0,0.032766486934881794,0.19178235557545903,-0.28431372549019607,-0.03608461219411033,0.0,0.0,11.101498846557337,0.039211702559934995,0.025349771436487048,-7.726776325956284,1833000000.0,1955000000.0,-1210000000.0,0.37793952967525196,1803000000.0,1657000000.0,1043000000.0,67.08004977187889,97.37221494102228,63.46002621231979,1.3416805787423483,0.9242883101150817,1.4182156133828996,0.051231802911534154,-0.2518421055945291
PPG,2004-09-30,2004,Q2,7.0159020589625145,0.5649999997670103,1.0513659789478904,0.9144845357053673,1.6338402055118184,9.479768037327931,1.5901546385195238,9.479768037327931,3.9753865962988097,10520637172.48,11324637172.48,13.557522129484536,4.36722174034039,29.143039258947365,33.50521392509554,3.232146596768049,3.232146596768049,4.700970183677875,29.64564704837696,31.3701860733518,36.065723479235665,0.018439947773074748,0.02984610103477047,0.41935483870967744,0.15873938830096523,2.1047120418848166,1.7241224122412242,0.0,1.7871287128712872,0.007318948342921421,0.39690721649484534,0.0,0.030718140307181403,0.19304570298871962,-0.13019390581717452,-0.019510170195101702,0.0,-0.0016604400166044002,10.977775326760693,0.04698000412286126,0.027957919008502665,-8.175753862607937,1609000000.0,1709000000.0,-1399000000.0,0.41935483870967744,1827000000.0,1652000000.0,1017500000.0,67.5840597758406,98.7269129287599,59.96042216358839,1.3316749585406302,0.9116055321707757,1.500990099009901,0.059600614439324115,-0.1368814432425231
PPG,2004-06-30,2004,Q1,7.079171124130348,0.5333422460748677,0.6440909091942392,0.477967914515182,1.6991176473314094,8.918181819612542,4.444518717290564,8.918181819612542,4.788422460661244,10722477062.5,11782477062.5,14.648192708333335,4.414358609510087,48.517995757918555,65.38095769817073,3.504077471405229,3.504077471405229,4.850752187114039,29.67878353274559,53.31437584841629,71.84437233231708,0.017066951874395764,0.015294973264485824,0.5369281045751634,0.18998612395929695,2.6700251889168767,1.631027253668763,0.0,1.2076502732240437,0.007274438503840819,0.4262295081967213,0.0,0.03046521202140799,0.19091119333950046,-0.2579185520361991,-0.023466447097571015,0.0,-0.0016467682173734047,10.34504568660596,0.04415930428528413,0.026154066028297843,-8.722185830276286,1505000000.0,1525000000.0,-1582000000.0,0.5369281045751634,1819500000.0,1617500000.0,1034500000.0,68.36146562371347,97.03679369250985,60.611038107752954,1.3165311653116532,0.9274832419256551,1.4848780487804878,0.059803921568627454,-0.16612299467905717
PPG,2004-03-31,2003,Q4,6.563697483404167,0.3334033615686745,0.37689075655589294,0.2232352942677212,1.3510084042695856,8.616302526800876,0.7305882357852694,8.616302526800876,4.858991599905204,10054637674.4,11264637674.4,21.85790798782609,4.441094379151943,77.34336672615385,130.57971005714285,3.383121693943472,3.383121693943472,4.9755466759717315,34.98334681490683,86.65105903384615,146.29399577142857,0.011437508115563448,0.007658157607812049,0.5639300134589502,0.1947252236551644,3.7577639751552794,1.6532797858099062,0.0,1.1304347826086956,0.007459244423193554,0.6521739130434783,0.0,0.03356890459363958,0.19449285465318927,-0.4076923076923077,-0.023409893992932862,0.0,0.0,8.039642100328951,0.031258149481041046,0.016587335929612,-9.235273115452284,1464000000.0,1414000000.0,-1814000000.0,0.5639300134589502,1712500000.0,1549000000.0,1020500000.0,71.31625441696113,99.55586398334489,65.20471894517696,1.261984392419175,0.9040150564617315,1.3802681992337165,0.03869448183041723,-0.15365546228817173
PPG,2003-12-31,2003,Q3,6.335869566870227,0.35539130444053685,1.0283043480943403,0.8214782610838639,1.453608696031376,8.479869567429532,0.6962173914859697,8.479869567429532,4.853130436048643,10988507459.82,12155507459.82,22.51743331930328,5.052187337848276,31.128916316770535,38.96633851,3.7748222122363444,3.7748222122363444,5.588739061986207,37.401561414830766,34.43486532526912,43.10463638234042,0.011102508729788718,0.025663175916396875,0.5723119203023016,0.19776828110161443,3.5907692307692307,1.6535764375876578,0.0,2.8934426229508197,0.006825312743722573,0.6147540983606558,0.0,0.034482758620689655,0.19610636277302945,-0.20113314447592068,-0.03264367816091954,0.0,0.0,8.234538111437935,0.067207306781135,0.018015357353809804,-9.19138043718036,1398000000.0,1396000000.0,-1839000000.0,0.5723119203023016,1660000000.0,1532000000.0,993500000.0,67.48965517241379,99.23753665689149,65.78445747800586,1.3335377069282648,0.9069148936170213,1.3681043129388164,0.04190999656475438,-0.20682608701047636
PPG,2003-09-30,2003,Q2,6.447112670381062,0.4149999996346831,1.0462676047127926,0.9264436611562996,0.8270774640606713,7.370633796328668,-0.17242957731300212,7.370633796328668,5.0881337983379105,8934024104.25,10392024104.25,15.728915676496479,4.04987493393019,24.955374592877096,28.183041338328074,3.542436203112609,3.542436203112609,4.710799684610154,27.638361979388296,29.028000291201117,32.782410423501574,0.01589429336019468,0.0354823309519839,0.690325138778747,0.20965799614643546,3.877659574468085,1.507602862254025,0.0,2.5211267605633805,0.008171009966860645,0.5140845070422535,0.0,0.03218495013599275,0.19352119460500963,-0.11452513966480447,-0.0185856754306437,0.0,0.0,8.295980533525562,0.04054543473716135,0.021203523965954905,-10.524779920312694,1135000000.0,1051000000.0,-2275000000.0,0.690325138778747,1731000000.0,1543500000.0,997000000.0,68.90752493200362,102.48175182481752,65.03649635036497,1.3060982830076968,0.8782051282051282,1.3838383838383839,0.056304520222045996,-0.119823943556493
PPG,2003-06-30,2003,Q1,6.8210526270914125,0.4499999997039474,0.885197367838686,0.7549342100296486,0.45296052601778913,7.194078942635475,-0.38190789448558693,7.194078942635475,5.678289469948494,8569422227.860001,10334422227.86,14.094444453717106,3.7193672863975697,28.66027500956522,33.605577364156865,3.5265112048806584,3.5265112048806584,4.485426314175347,25.517091920641978,34.56328504301003,40.527145991607846,0.01773748520709292,0.029756965314530884,0.7893004115226337,0.23036271919288975,4.3580246913580245,1.6209756097560977,0.0,1.9671052631578947,0.008518660658669627,0.48026315789473684,0.0,0.03125,0.19337016574585636,-0.14715719063545152,-0.019097222222222224,-0.4782608695652174,0.0,8.534638202423293,0.04252107466721739,0.022632519356759976,-11.120476966368107,1273000000.0,975000000.0,-2418000000.0,0.7893004115226337,1711000000.0,1478000000.0,1004000000.0,69.2578125,95.10726643598616,62.53287197231834,1.299492385786802,0.9462999345121152,1.4392430278884463,0.06255144032921811,-0.13026315780903738
PPG,2003-03-31,2002,Q4,6.10679486788026,0.2299999998525641,0.3332051279915352,0.15333333323504272,0.22705128190573637,6.593333329106837,-0.7637179482283859,6.593333329106837,5.9888461500071495,7644000004.9,9598000004.9,24.500000015705126,3.690970547996137,67.64601774247787,147.00000009423076,3.418604653354204,3.418604653354204,4.634476100869145,34.03546101028369,84.93805314070796,184.57692317115385,0.010204081626111984,0.0068027210840746555,0.9083184257602862,0.2522667991553844,6.929078014184397,1.5920781893004115,0.0,1.4487179487179487,0.009549973829566344,0.9358974358974359,0.0,0.03476581361661033,0.19550366414110049,-0.5398230088495575,-0.0294543698696282,0.0,0.0,5.841275541887728,0.0271170867756089,0.012042612320518759,-11.365096146560836,1151000000.0,807000000.0,-2575000000.0,0.9083184257602862,1567500000.0,1403500000.0,973000000.0,71.66103331723805,95.76321667907669,67.28220402084885,1.2559126743480897,0.9398180545836249,1.3376494023904382,0.03488372093023256,-0.17987179475649243
PPG,2002-12-31,2002,Q3,5.867948714187213,0.277179487001808,0.8256410251117686,0.5248717945353386,0.34499999977884616,6.339743585679652,-0.9642307686126725,6.339743585679652,6.047820508943705,8505391309.799999,10439391309.8,22.62072156861702,4.27406598482412,30.376397534999995,47.78309724606741,3.955995958046511,3.955995958046511,5.2459252813065325,34.11565787516339,37.283540392142854,58.64826578539326,0.011051813676308135,0.020927902493434555,0.953953488372093,0.26084191784306243,6.3202614379084965,1.5338541666666667,0.0,2.978723404255319,0.00846521898610836,0.7659574468085106,0.0,0.035678391959798994,0.19852473610581203,-0.36428571428571427,-0.05125628140703518,0.0,0.0,6.287929284195076,0.029297890696157448,0.014915899714376388,-11.439551274718236,1025000000.0,720000000.0,-2637000000.0,0.953953488372093,1522500000.0,1385000000.0,949500000.0,67.20603015075376,98.35051546391752,67.23235527359239,1.339165545087483,0.9150943396226415,1.3386411889596603,0.04372093023255814,-0.30076923057642996
PPG,2002-09-30,2002,Q2,6.078243244269974,0.4350000000734797,0.6789527028173906,0.5466891892815353,0.47908783791876486,8.150371622998373,4.0413851358178015,8.150371622998373,6.469155406498168,7604137929.750001,9642137929.75,12.844827584037164,3.6770492890473894,32.91834601623377,40.882461987903234,2.74220624945907,2.74220624945907,4.6625425192214704,29.042584125753013,41.74085683874459,51.83945123521505,0.01946308725160983,0.024460366410806948,0.7937252073566534,0.2564670240037287,6.13855421686747,1.4748549323017408,0.0,1.5608108108108107,0.009600036279510255,0.49324324324324326,0.1702127659574468,0.03288201160541586,0.1785131670939175,-0.19480519480519481,-0.021760154738878143,0.0,0.0,8.931503920033375,0.033255185026654734,0.02099290780141844,-11.357761826242864,982000000.0,1375000000.0,-2625000000.0,0.7937252073566534,1599500000.0,1401500000.0,959500000.0,67.84816247582205,97.04105344694035,66.7157242447715,1.3264913406029506,0.9274425287356322,1.3490073145245558,0.05337179949513163,-0.13226351353585533
PPG,2002-06-30,2002,Q1,6.309217393498858,-1.0200000003547827,0.9253913046697013,0.7953043481027146,0.40208695666159544,8.056521741932704,3.873043479608015,8.056521741932704,6.850260871947917,10326323525.82,12507323525.82,-7.482843134652174,4.8389519802343015,32.991448964281155,38.38781979858736,3.789476523236697,3.789476523236697,5.860976347619494,10.894881120052265,39.95950008249201,46.495626490037175,-0.03340976090254774,0.026049929515319835,0.8502752293577982,0.264709242545413,1.8998257839721255,1.378787878787879,0.0,-0.9072463768115943,0.006875631953857651,-0.20579710144927535,0.1682286785379569,0.031865042174320526,0.17696789672112417,-0.14057507987220447,-0.020618556701030927,0.0,0.0,13.597690025944393,0.036209960624539184,-0.047890061077179344,-11.965043482422624,850000000.0,1310000000.0,-2800000000.0,0.8502752293577982,1586500000.0,1372000000.0,955000000.0,69.16588566073102,95.84150943396226,65.3433962264151,1.301219512195122,0.9390503189227498,1.3773388773388773,-0.12660550458715597,-0.13008695656698677
PPG,2002-03-31,2001,Q4,5.514705882352941,0.1,0.1411764705882353,0.0029411764705882353,0.21176470588235294,8.93235294117647,4.879411764705883,8.93235294117647,7.1,9265000000.0,11607000000.0,68.125,4.941333333333334,193.02083333333334,9265.0,3.050707935462628,3.050707935462628,6.1904,34.13823529411765,241.8125,11607.0,0.003669724770642202,0.00010793308148947653,0.7948633519920975,0.2844350182632261,6.8882352941176475,1.3737911025145069,0.0,1.411764705882353,0.007663248785752834,2.088235294117647,0.1824,0.0352,0.17744786143513608,-0.9791666666666666,-0.025066666666666668,0.0,0.0,4.483056336657734,0.018579401172165416,0.004870362412261854,-10.665441176470589,773000000.0,1659000000.0,-2481000000.0,0.7948633519920975,1474500000.0,971500000.0,926000000.0,73.584,100.89991589571068,71.75777964676197,1.2230919765166341,0.891972993248312,1.2542194092827004,0.011195258478761936,-0.13823529411764707
PPG,2001-12-31,2001,Q3,5.608823529411764,0.24411764705882352,0.8647058823529412,0.6647058823529411,0.3176470588235294,9.058823529411764,4.882352941176471,9.058823529411764,7.044117647058823,8792400000.0,11079400000.0,26.483132530120482,4.610592553749345,29.90612244897959,38.90442477876106,2.8546753246753247,2.8546753246753247,5.809858416360776,36.68675496688742,37.685034013605446,49.02389380530973,0.009439970883945225,0.02570401710568218,0.7775974025974026,0.28336488405111215,7.572847682119205,1.382608695652174,0.0,3.5421686746987953,0.00807515581638688,0.8554216867469879,0.18563188253801782,0.0346093340325118,0.1824420255560814,-0.23129251700680273,-0.0356581017304667,0.0,0.0,7.053858548002285,0.018773003612038302,0.012011577424023154,-10.670588235294117,748000000.0,1660000000.0,-2547000000.0,0.7775974025974026,1475000000.0,989000000.0,955000000.0,66.82747771368642,45.371900826446286,67.2396694214876,1.3467514124293785,1.9836065573770492,1.3384955752212389,0.026948051948051947,-0.2
PPG,2001-09-30,2001,Q2,6.018494626244514,0.2800000001204301,1.1290322585501213,0.8369892476718234,0.47870967762525146,9.342365595416071,4.985806453757336,9.342365595416071,8.020645164740062,7562892853.889999,10067892853.89,20.330357134112905,3.7833380959929963,20.16771427704,27.204650553561148,2.4372841939703513,2.4372841939703513,5.036464659274637,29.524612474750732,26.847714277039998,36.215441920467626,0.012296881867388233,0.03675842106595623,0.8585240090235257,0.3017671046669687,7.346041055718475,1.2906574394463668,0.0,4.032258064516129,0.00938794207080177,0.7634408602150538,0.17408704352176088,0.03301650825412707,0.17829632985953783,-0.25866666666666666,-0.04852426213106553,0.0,0.0,7.671825289749242,0.02320870376185098,0.01282051282051282,-11.397204305977292,672000000.0,1656000000.0,-2614000000.0,0.8585240090235257,1585500000.0,1378500000.0,1041000000.0,69.06453226613307,97.63679619349722,71.80015860428232,1.303129074315515,0.9217836257309941,1.253479125248509,0.02997099581050596,-0.2920430108782981
PPG,2001-06-30,2001,Q1,6.428995840760547,0.46048722519310753,1.0130718954248366,0.8080808080808081,0.35056446821152704,9.096850861556744,4.833630421865716,9.096850861556744,8.374925727866904,8849214000.0,11550214000.0,14.272925806451614,4.0892855822550835,25.950774193548387,32.533875,2.8900111038536904,2.8900111038536904,5.337437153419593,28.378904176904175,33.871595307917886,42.46402205882353,0.017515679923663277,0.030737193156363942,0.9206401045068583,0.3149016979445934,6.636363636363637,1.2518962075848303,0.0,2.2,0.007910307062299544,0.45161290322580644,0.15804066543438078,0.030961182994454713,0.17537980339588918,-0.20234604105571846,-0.03188539741219963,0.0,0.0,9.708353683954885,0.03186013907696762,0.020997019777837984,-11.50103980986334,631000000.0,1627000000.0,-2619000000.0,0.9206401045068583,1627000000.0,1381500000.0,1108500000.0,68.0822550831793,93.15201192250372,72.16095380029806,1.321930360415394,0.9661627069834413,1.2472118959107807,0.05062050947093403,-0.20499108734402852
PPG,2001-03-31,2000,Q4,6.184553578607071,0.16500000019151786,0.14732142874242665,-0.020625000023939733,0.2298214288381856,8.880535724593479,4.566964291015227,8.880535724593479,8.795089295922871,7823030293.95,10730030293.95,34.924242383705355,3.727027295831348,156.460605879,-1117.5757562785714,2.595564132033842,2.595564132033842,5.1119725078370655,24.38643248625,214.60060587900003,-1532.8614705642858,0.007158351418287109,-0.0008947939272858887,0.9903782349037823,0.3294338373247986,6.6068181818181815,1.1892400300978179,0.0,0.8928571428571429,0.00907576697675687,1.2678571428571428,0.1672224868985231,0.031919961886612676,0.17602913585696944,-1.14,-0.027155788470700333,0.0,0.0,5.741862843696361,0.021990844627950812,0.007500669702652022,-11.947031263867089,503000000.0,1550000000.0,-2755000000.0,0.9903782349037823,1590000000.0,1069000000.0,1131000000.0,69.33301572177227,93.3987915407855,77.56042296072508,1.298082869511441,0.9636098981077147,1.1603856266432953,0.0185799601857996,-0.1679464287663664
PPG,2000-12-31,2000,Q3,6.641250007708594,0.37125000043091516,0.7601785723109216,0.088392857245456,0.32705357180818717,9.125089296305907,4.646517862536137,9.125089296305907,8.753839295874991,7860363627.24,10720363627.24,15.595959577857144,3.4872953093345163,30.466525686976745,262.012120908,2.5380573546141427,2.5380573546141427,4.756150677568766,26.93558700311558,41.551797004806204,357.3454542413333,0.016029792764719997,0.0038166173249333333,0.9593154665805619,0.32558904109589043,7.185929648241206,1.2162799842705465,0.0,2.0476190476190474,0.00865099926984889,0.5396825396825397,0.1619343389529725,0.031055900621118012,0.1806027397260274,-0.8837209302325582,-0.10115350488021295,0.0,0.0,8.730579111186062,0.02892033198054916,0.01685167848067407,-11.951450906729363,550000000.0,1577000000.0,-2807000000.0,0.9593154665805619,1607500000.0,1100000000.0,1095500000.0,62.40905057675244,46.39676113360324,68.07692307692308,1.4420985284708894,1.9397905759162304,1.3220338983050848,0.04068453341943817,-0.6717857150654656
PPG,2000-09-30,2000,Q2,6.012731481481482,0.4340277777777778,0.7204861111111112,0.42824074074074076,0.390625,9.08275462962963,4.730902777777778,9.08275462962963,8.229166666666666,6856704000.0,9565704000.0,11.42784,3.299665062560154,27.536963855421686,46.32908108108108,2.1843593501115004,2.1843593501115004,4.603322425409047,23.44535294117647,38.41648192771084,64.63313513513513,0.021876400089605737,0.021584714755077658,0.9060210258043963,0.3149850481780928,6.639705882352941,1.2776422764227642,0.0,1.66,0.01006314404121864,0.46,0.15832531280076997,0.03464870067372473,0.1814154391405471,-0.40562248995983935,-0.04860442733397498,0.0,0.0,9.418002743680681,0.030458199057108087,0.02029495332160736,-11.13136574074074,683000000.0,1635000000.0,-2613000000.0,0.9060210258043963,1688000000.0,1449500000.0,1068500000.0,71.54956689124158,101.68371361132967,75.76711250983477,1.257869249394673,0.8850974930362117,1.1878504672897197,0.047785919082510356,-0.29224537037037035
PPG,2000-06-30,2000,Q1,6.360487807049923,0.5900000002014634,0.785707317341461,0.45760975625381795,0.4144390245317597,9.284585369024004,4.705609757704354,9.284585369024004,8.179414636939311,7699661014.32,10397661014.32,9.389830505268293,3.4840095087420813,28.20388649934066,48.42554097056603,2.38675170933664,2.38675170933664,4.70482398838009,23.577462617505667,38.08667038212454,65.39409442968554,0.0266245487455534,0.0206502597587463,0.8809671419714817,0.31227337655202725,6.117913832199546,1.2861749294639258,0.0,1.3317073170731708,0.008961433480210657,0.33658536585365856,0.15520361990950227,0.03167420814479638,0.18635314800571365,-0.4175824175824176,-0.051583710407239816,0.0,0.0,11.101930949878943,0.0358890047317347,0.027683997299122215,-10.935146345197367,710000000.0,1635000000.0,-2579000000.0,0.8809671419714817,1718500000.0,1433000000.0,1067000000.0,70.20814479638008,99.22381311228335,72.36623963828184,1.2819025522041763,0.9070403280929596,1.2436738519212747,0.06354618722876627,-0.3280975610876431
PPG,2000-03-31,1999,Q4,5.993681792073521,0.39919586444572086,0.2584721424468696,-0.08041355542791499,0.4164273406088455,9.009190120620334,4.35669155657668,9.009190120620334,8.414704192992533,9108912000.0,11893912000.0,16.38293525179856,4.364596070915189,101.21013333333333,-325.3182857142857,2.9037016257570927,2.9037016257570927,5.699047436511739,25.80024295010846,132.15457777777777,-424.78257142857143,0.015259780750983214,-0.0030739126692628056,0.9340133885878228,0.3229717813051146,6.0412147505422995,1.2667464114832536,0.0,0.6474820143884892,0.007684781673157014,0.5035971223021583,0.15668423574508863,0.033540967896502155,0.18981481481481483,-1.3111111111111111,-0.05654048873981792,-1.2688172043010753,0.0,8.995538191710924,0.029931889598409166,0.01891156462585034,-11.11358414704193,669000000.0,1517000000.0,-2656000000.0,0.9340133885878228,1653500000.0,1079000000.0,1041500000.0,73.87158600862482,100.69377990430621,76.57894736842105,1.2183304144775249,0.8937990021382751,1.175257731958763,0.044309850175326744,-0.3388856978747846
PPG,1999-12-31,1999,Q3,5.907913669064748,0.46618705035971225,0.5294964028776978,0.08633093525179857,0.4546762589928058,8.938129496402878,4.437410071942446,8.938129496402878,8.028776978417266,10869800000.0,13501800000.0,16.77438271604938,5.294593278129566,59.075,362.32666666666665,3.4996136509980684,3.4996136509980684,6.576619581100828,34.88837209302326,73.37934782608696,450.06,0.01490367808055346,0.002759940385287678,0.8982614294913072,0.3129908009872111,6.801033591731266,1.2843959731543624,0.0,1.1358024691358024,0.006071868847632891,0.4074074074074074,0.1568436434486118,0.03799318071115441,0.1864482835988333,-0.8369565217391305,-0.07501217730150998,0.0,0.0,9.68266002074724,0.027018800153719123,0.022338665195808054,-11.074820143884892,678000000.0,1542000000.0,-2648000000.0,0.8982614294913072,1593000000.0,1067000000.0,1018000000.0,69.87822698490014,54.57831325301205,73.44578313253012,1.2879548306148054,1.6490066225165563,1.2253937007874016,0.05215711526078558,-0.44316546762589926
PPG,1999-09-30,1999,Q2,5.624640184225677,0.2849740932642487,0.947035118019574,0.5728267127230858,0.4720782959124928,8.6384571099597,4.401266551525619,8.6384571099597,7.832469775474957,10422000000.0,12979000000.0,26.318181818181817,5.33367451381781,31.677811550151976,52.37185929648241,3.472842385871376,3.472842385871376,6.642272262026612,31.579075425790755,39.44984802431611,65.22110552763819,0.009499136442141624,0.019094223757436194,0.906697767410863,0.31097142857142857,6.221411192214112,1.3710170231340026,0.0,3.323232323232323,0.0063327576280944155,0.6666666666666666,0.16120777891504606,0.0368474923234391,0.17977142857142858,-0.3951367781155015,-0.06653019447287616,0.0,0.0,7.442383411753222,0.026443988116043343,0.013794064372300404,-10.880829015544041,850000000.0,1529000000.0,-2507000000.0,0.906697767410863,1546000000.0,1310500000.0,967500000.0,73.32650972364381,102.91044776119404,76.11940298507463,1.2273869346733668,0.8745467730239304,1.1823529411764706,0.032989003665444855,-0.3742084052964882
PPG,1999-06-30,1999,Q1,5.610951008645533,0.5302593659942363,0.760806916426513,0.5129682997118156,0.276657060518732,8.45821325648415,7.07492795389049,8.45821325648415,5.077809798270893,10246910000.0,11912910000.0,13.922432065217393,5.2629224447868515,38.81405303030303,57.56691011235955,3.491281090289608,3.491281090289608,6.118597842835131,30.08310606060606,45.12465909090909,66.9264606741573,0.01795663278002832,0.01737109040676653,0.6003407155025554,0.23452682017835752,4.207070707070707,1.3971845148315736,0.0,1.434782608695652,0.006440966105879724,0.358695652173913,0.15767847971237803,0.034411915767847974,0.07600159723146546,-0.32575757575757575,-0.044170518746789934,0.0,0.0,10.045573800117888,0.041916116670215026,0.026505329876116392,-8.093659942363113,790000000.0,2455000000.0,-1708000000.0,0.6003407155025554,1469000000.0,1222000000.0,931500000.0,69.33744221879816,95.94849785407726,70.68669527896996,1.298,0.9380032206119162,1.273224043715847,0.06269165247018739,-0.2478386167146974
PPG,1999-03-31,1998,Q4,5.175086107921929,0.3530424799081516,0.3587830080367394,0.014351320321469576,0.23536165327210104,8.02812858783008,6.624569460390356,8.02812858783008,5.289896670493685,8929492000.0,10690492000.0,18.149373983739835,4.952574597892402,71.435936,1785.8984,3.192524848051484,3.192524848051484,5.929280088740987,28.97152303523035,85.523936,2138.0984,0.013774579785725775,0.0005599422677124298,0.6589202717196997,0.24788164088769335,4.772357723577236,1.332518337408313,0.0,1.016260162601626,0.007391237933804074,0.5365853658536586,0.158624514697726,0.03716028840820854,0.07881640887693342,-0.96,-0.06655574043261231,0.0,0.0,7.985679969642774,0.03359508364629566,0.017958826106000875,-8.342422502870264,680000000.0,2308000000.0,-1816000000.0,0.6589202717196997,1402000000.0,916000000.0,932500000.0,71.78036605657239,98.07796917497733,77.35267452402539,1.2538247566063978,0.9176372712146422,1.1635021097046414,0.04397568823739721,-0.34443168771526983
PPG,1998-12-31,1998,Q3,5.134902411021814,0.46498277841561425,0.6515499425947188,0.2066590126291619,0.36739380022962115,8.266360505166475,6.8628013777267505,8.266360505166475,4.931113662456946,10134956000.0,11724956000.0,15.640364197530864,5.665151481274455,44.64738325991189,140.76327777777777,3.5190819444444448,3.5190819444444448,6.5539161542761315,31.774948509485096,51.65178854625551,162.84661111111112,0.015984282516865393,0.0071041255630512855,0.5965277777777778,0.23257073236767295,4.308943089430894,1.391213389121339,0.0,1.4012345679012346,0.006314778278267809,0.3950617283950617,0.16489659027389603,0.03856903297931805,0.07797482063083797,-0.6828193832599119,-0.08664058133035216,0.0,0.0,9.299655568312284,0.03849970750459635,0.023785053589781235,-8.062571756601608,748000000.0,2391000000.0,-1760000000.0,0.5965277777777778,1360000000.0,897000000.0,893500000.0,68.71995528228061,53.33960489181561,77.6387582314205,1.3096632503660322,1.6873015873015873,1.159214830970556,0.05625,-0.44489092996555685
PPG,1998-09-30,1998,Q2,5.096045197740113,0.7005649717514124,0.7146892655367232,0.5819209039548022,0.7457627118644068,8.251412429378531,8.494350282485875,8.251412429378531,4.344632768361582,9657120000.0,10931120000.0,9.735000000000001,5.353170731707317,38.170434782608694,46.87922330097087,3.3061006504621706,3.3061006504621706,6.059379157427938,43.20600790513834,43.20600790513834,53.06368932038835,0.025680534155110426,0.021331411435293338,0.5265320095857583,0.21561755222206644,5.0355731225296445,1.7751633986928104,0.0,1.0201612903225807,0.006627234620673658,0.25806451612903225,0.15631929046563192,0.037694013303769404,0.0,-0.1857707509881423,-0.026053215077605323,0.0,0.0,11.404588401107624,0.042610450773716085,0.034767979812140755,-6.812146892655368,1186000000.0,3007000000.0,-1410000000.0,0.5265320095857583,1431500000.0,1204500000.0,886000000.0,67.54988913525499,96.8207024029575,72.36598890942699,1.3323485967503692,0.929553264604811,1.2436781609195402,0.08490243067442657,-0.1327683615819209
PPG,1998-06-30,1998,Q1,5.661016949152542,0.5621468926553672,0.6864406779661016,0.3898305084745763,0.4265536723163842,7.635593220338983,7.878531073446328,7.635593220338983,4.901129943502825,12312120000.0,13896120000.0,15.46748743718593,6.14377245508982,50.66716049382717,89.21826086956521,4.554983351831299,4.554983351831299,6.9341916167664674,30.013218142548595,57.18567901234568,100.69652173913043,0.016162935383995606,0.011208467753725597,0.6418793932667407,0.24017165005537097,3.4211663066954645,1.5686383928571428,0.0,1.221105527638191,0.005198129972742306,0.32160804020100503,0.14620758483033933,0.03343313373253493,0.0,-0.43209876543209874,-0.05239520958083832,0.0,0.0,9.827375669723013,0.05029169195028841,0.02754706533776301,-7.630649717514125,1019000000.0,2789000000.0,-1624000000.0,0.6418793932667407,1476000000.0,1228500000.0,900000000.0,67.76946107784431,94.47723440134907,68.44856661045532,1.3280318091451293,0.9526104417670683,1.3148558758314857,0.073621901590825,-0.2966101694915254
PPG,1998-03-31,1997,Q4,5.3887323943661976,0.5408450704225352,0.6169014084507042,0.10985915492957747,0.3971830985915493,7.343661971830986,7.588732394366197,7.343661971830986,4.9352112676056334,12059350000.0,13670350000.0,15.702278645833335,6.303894406691061,55.06552511415525,309.2141025641026,4.625757575757575,4.625757575757575,7.146027182435964,31.865617715617716,62.4216894977169,350.5217948717949,0.01592125612076936,0.0032340051495312765,0.6720368239355581,0.24655220940050662,3.7552447552447554,1.501100110011001,0.0,1.140625,0.0049753925377404255,0.3125,0.1374803972817564,0.035023523261892314,0.0,-0.821917808219178,-0.09409304756926294,0.0,0.0,9.453312962505262,0.048340670138122384,0.0270194202082747,-7.717605633802817,911000000.0,2694000000.0,-1683000000.0,0.6720368239355581,1398000000.0,929000000.0,880500000.0,67.8881338212232,95.26637554585153,70.58515283842794,1.3257103257103258,0.9447194719471947,1.2750556792873051,0.07364787111622555,-0.5070422535211268
PPG,1997-12-31,1997,Q3,5.2,0.447887323943662,0.7971830985915493,0.428169014084507,0.36338028169014086,7.067605633802817,7.298591549295774,7.067605633802817,4.791549295774648,10138800000.0,11710800000.0,15.941509433962263,5.492307692307692,35.82614840989399,66.70263157894736,4.040972499003587,4.040972499003587,6.343878656554713,25.023076923076925,41.380918727915194,77.04473684210527,0.015682329269736065,0.01499191225786089,0.6779593463531287,0.2476703552708212,3.358974358974359,1.5547533092659447,0.0,1.779874213836478,0.005917860101787194,0.37735849056603776,0.15167930660888407,0.03683640303358613,0.0,-0.4628975265017668,-0.07096424702058506,0.0,0.0,8.43940441709571,0.050385811019672565,0.023150844496214327,-7.6105633802816905,922000000.0,2591000000.0,-1693000000.0,0.6779593463531287,1327000000.0,863500000.0,841000000.0,65.96424702058505,53.585253456221196,71.5852534562212,1.3643754619364374,1.6795665634674923,1.257242178447277,0.06337186129932244,-0.36901408450704226
PPG,1997-09-30,1997,Q2,5.067114093959732,0.47818791946308725,0.7997762863534675,0.4166666666666667,0.2516778523489933,6.943512304250559,7.172818791946309,6.943512304250559,4.351230425055928,11207184000.0,12673184000.0,16.384771929824563,6.184980132450331,39.185958041958045,75.216,4.5135658477648,4.5135658477648,6.994030905077262,30.834997566909976,44.311832167832165,85.05492617449664,0.01525807018069838,0.013295043607743034,0.6266612968183649,0.23799327011318447,3.5669099756690996,1.4559178743961352,0.0,1.672514619883041,0.005353708835332765,0.3508771929824561,0.1467991169977925,0.0347682119205298,0.0,-0.479020979020979,-0.07560706401766004,0.0,0.0,8.643311478077036,0.047951824549353476,0.026154787396757417,-6.984759507829978,755000000.0,2565000000.0,-1562000000.0,0.6266612968183649,1338500000.0,1088000000.0,813000000.0,64.61920529801326,90.16682113067655,68.3132530120482,1.3927747886241353,0.9981498612395929,1.3174603174603174,0.06886830447039871,-0.3831096196868009
PPG,1997-06-30,1997,Q1,5.3970016657412545,0.6052193225985564,0.7626318711826763,0.4994447529150472,0.2915047196002221,6.840644086618545,7.062742920599667,6.840644086618545,4.380899500277623,10467412000.0,11940412000.0,12.003912844036696,5.384471193415638,38.10488532945031,58.18461367426348,4.248137987012987,4.248137987012987,6.142187242798354,26.652705357142857,43.467098653076086,66.37249583101723,0.020826542415641996,0.01718667422281649,0.640422077922078,0.24032896740785867,3.2879464285714284,1.4326978625072213,0.0,1.260091743119266,0.005617434376329125,0.26972477064220185,0.14146090534979425,0.03137860082304527,0.0,-0.34510374954495815,-0.04876543209876543,0.0,0.0,9.651529648476695,0.05666068082882543,0.03320134023758757,-6.889228206551915,749000000.0,2544000000.0,-1542000000.0,0.640422077922078,1360400000.0,1075200000.0,813300000.0,63.7037037037037,85.99476439790575,63.37696335078534,1.4127906976744187,1.0465753424657533,1.420074349442379,0.08847402597402597,-0.2631871182676291
PPG,1997-03-31,1996,Q4,4.872737246297312,0.4552934722984092,0.44788809654415795,0.1648381788261108,0.30032912781130006,6.727372462973121,6.9393856280855735,6.727372462973121,4.384256719692814,9844200000.0,11333200000.0,14.825602409638554,5.541033434650456,60.28291488058788,163.79700499168052,4.0134540117416835,4.0134540117416835,6.379151187661826,29.83206106870229,69.40110226576853,188.57237936772046,0.016862721196237378,0.0061051177343004,0.6517041748206132,0.24392663126411523,3.91945248749671,1.4288278897382443,0.0,0.9837349397590361,0.006115276000081266,0.36265060240963853,0.1394236181470224,0.03264662839130924,0.0,-0.6319657072872015,-0.058088483620398514,0.0,0.0,8.3015599306705,0.04511866826885974,0.025331135933589696,-6.843664289632474,740500000.0,2530100000.0,-1555800000.0,0.6517041748206132,1285200000.0,828650000.0,808050000.0,68.12563323201621,87.39970555760029,67.87265366212735,1.3210886377156454,1.0297517528898996,1.3260126891166422,0.06767775603392041,-0.28304991771804716
PPG,1996-12-31,1996,Q3,4.812122874382886,0.4171695008228195,0.8428414701042238,0.4413055403181569,0.19089413055403182,6.809105869445968,7.018102029621503,6.809105869445968,4.065277015907844,10230676000.0,11643276000.0,16.81570677186062,5.831106298090624,33.292144484217374,63.58406463642014,4.120952227503423,4.120952227503423,6.636235964662297,32.9371315417256,37.888955418158154,72.36343070229957,0.014867052773443318,0.015727210987817423,0.5970353661483928,0.2301052566212314,3.996039603960396,1.2982079258296115,0.0,2.020381328073636,0.005737646270881807,0.3859303090072321,0.1501282416642918,0.03607865488743232,0.0,-0.47640741945981124,-0.08344257623254489,0.0,0.0,7.994523386271777,0.040757570179530925,0.023612879187754215,-6.844624245748766,527500000.0,2558800000.0,-1586200000.0,0.5970353661483928,1252100000.0,836650000.0,787800000.0,62.86919350242234,50.48084987419625,66.80178920883422,1.431543733681462,1.7828542947333443,1.3472693032015066,0.0612664142431322,-0.40153592978606695
PPG,1996-09-30,1996,Q2,4.828954423592493,0.5123324396782842,1.0453083109919572,0.7576407506702413,0.27989276139410185,6.869973190348525,7.0699731903485254,6.869973190348525,3.827882037533512,10141870000.0,11465270000.0,13.267752485609627,5.630618476571175,26.0114644780713,35.8877211606511,3.9578029268292685,3.9578029268292685,6.3653508771929825,27.747507260406582,29.40566812003078,40.5706652512385,0.018842678914243627,0.027864683731895597,0.557190243902439,0.2222014722131441,3.202807357212004,1.38900372054568,0.0,2.04029304029304,0.0058864883892221056,0.31240188383045525,0.13840772818121252,0.0327559404841217,0.0,-0.2751987689151064,-0.05957139684654675,0.0,0.0,8.899071738982245,0.05156442917077764,0.02973995051122835,-6.261930294906167,658700000.0,2637100000.0,-1436600000.0,0.557190243902439,1333700000.0,1075900000.0,762850000.0,63.887408394403735,89.94123682492305,65.40341386064733,1.4087282965743781,1.0006533507560202,1.3760749582852008,0.07457560975609756,-0.2876675603217158
PPG,1996-06-30,1996,Q1,5.073170731707317,0.605779427359491,0.4533404029692471,0.17338282078472958,0.3231707317073171,6.577412513255568,6.775185577942736,6.577412513255568,4.267762460233298,9169732000.0,10657632000.0,10.0325295404814,4.791875,53.62416374269005,140.20996941896024,3.6959822652156387,3.6959822652156387,5.569414715719064,23.068467532467533,62.32533333333333,162.96073394495411,0.024918939833792307,0.007132160460087601,0.6488512696493349,0.24760059062384643,3.2205627705627706,1.3182991076228363,0.0,0.7483588621444202,0.006586888253658886,0.26433260393873087,0.13205476588628762,0.030413879598662208,0.0,-0.6175438596491228,-0.05518394648829431,0.0,0.0,9.468388283135093,0.05864390408541558,0.03514519502891596,-6.387062566277836,592100000.0,2555600000.0,-1493700000.0,0.6488512696493349,1364000000.0,1073600000.0,763200000.0,65.31772575250835,86.20977036971362,59.57443035730118,1.3778801843317972,1.043965198074787,1.51071524243236,0.0920999596936719,-0.2799575821845175
PPG,1996-03-31,1995,Q4,4.544698544698544,0.44776507276507277,0.36304573804573803,0.060031185031185035,0.2312889812889813,6.496361746361746,6.6873700623700625,6.496361746361746,3.642931392931393,9670024000.0,10982824000.0,14.030795124782356,5.52951967063129,69.21992841803865,418.6157575757576,3.868319065525242,3.868319065525242,6.280205855443733,29.26411937116973,78.61720830350751,475.4469264069264,0.017817949572824225,0.002388825508602667,0.5607648611888951,0.22086372874946825,3.4980015987210233,1.295834682205676,0.0,0.8107951247823564,0.005977234389490657,0.3354614045269878,0.13660795974382434,0.03350869167429094,0.0,-0.8346456692913385,-0.06667429094236048,0.0,0.0,8.090054853122307,0.047188054478232704,0.027147111188139093,-5.951923076923077,548300000.0,2573300000.0,-1371900000.0,0.5607648611888951,1292150000.0,825100000.0,758650000.0,68.92040256175663,89.96626686656671,65.7627436281859,1.3058542413381122,1.0003749531308586,1.368556040010259,0.06892551404112329,-0.303014553014553
PPG,1995-12-31,1995,Q3,4.476091476091476,0.4189189189189189,0.8846153846153846,0.4594594594594595,0.27442827442827444,6.6767151767151764,6.853950103950104,6.6767151767151764,3.1725571725571724,8804224000.0,9919424000.0,13.654193548387097,5.1116024152345565,25.864347826086956,49.79764705882353,3.4268348123929626,3.4268348123929626,5.759071063632141,25.512921810699588,29.140493537015278,56.105339366515835,0.01830939330939331,0.020081270081270083,0.47516736727385955,0.19708441631822804,2.8683127572016462,1.3965263287099545,0.0,2.1116625310173696,0.006678612447843218,0.36476426799007444,0.1396888063167673,0.035067347886669764,0.0,-0.4806110458284371,-0.09498374361356247,0.0,0.0,7.933003960327945,0.04674823518848972,0.026023925221574675,-5.5840046777546775,646100000.0,2637400000.0,-1281400000.0,0.47516736727385955,1282450000.0,839850000.0,748700000.0,65.05980027868091,50.230555821295326,63.4985171721037,1.3833427033973176,1.7917380870757629,1.4173559322033897,0.06274326638642379,-0.42515592515592515
PPG,1995-09-30,1995,Q2,4.290940766550523,0.42409158785465406,0.6704828272772524,0.3725734196117471,0.29442508710801396,6.5729218516674965,6.7526132404181185,6.5729218516674965,2.9594325535092088,9317742000.0,10388542000.0,13.670396126760563,5.404409257003654,34.587015590200444,62.242765531062126,3.5281113214691406,3.5281113214691406,6.025486920712256,26.521679857033444,38.56177431328879,69.39573814295257,0.0182876924473762,0.016066124174719584,0.45024611889435817,0.19214982871178335,2.7337247893796275,1.5026260836550023,0.0,1.5809859154929577,0.006686169245724983,0.36561032863849763,0.14314714923728322,0.034684763064787426,0.0,-0.4443207126948775,-0.06942752740560293,0.0,0.0,7.9195466701484865,0.04900617605631571,0.027535388791933294,-4.945495271279244,794300000.0,2713200000.0,-1100600000.0,0.45024611889435817,1361200000.0,1087100000.0,760150000.0,68.89507569166521,95.84903827472314,66.43773071692247,1.3063342930747084,0.93897655751163,1.354651927885248,0.06452101476713366,-0.2979094076655052
PPG,1995-06-30,1995,Q1,4.557504873294347,0.5282651072124757,0.6842105263157895,0.466130604288499,0.24512670565302144,6.860867446393762,7.048001949317738,6.860867446393762,2.492202729044834,8798976000.0,9721176000.0,10.146420664206643,4.704328485885372,31.335384615384616,45.99569262937794,3.1249692793976633,3.1249692793976633,5.197378100940975,22.782226388563394,34.619572649572646,50.816393099843175,0.02463923074685054,0.021741166244799395,0.3632489256667969,0.16557127594133456,2.161237403327865,1.6209426852647584,0.0,1.2952029520295203,0.006591676122312414,0.26752767527675275,0.1380453378956373,0.03170444824636441,0.0,-0.31873219373219375,-0.04785072711719418,0.0,0.0,9.030394771860484,0.05781066638160449,0.035095671318030236,-4.269371345029239,939300000.0,2892500000.0,-832900000.0,0.3632489256667969,1407800000.0,1068650000.0,763850000.0,67.49037639007699,87.45244748940773,61.692959524024154,1.3335234564380436,1.0291307171351702,1.4588374539715938,0.07699683915189828,-0.21807992202729046
PPG,1995-03-31,1994,Q4,4.215012106537531,0.5307506053268766,0.43922518159806295,0.2576271186440678,0.17723970944309927,6.650363196125908,6.830266343825666,6.650363196125908,2.512590799031477,7797440000.0,8761940000.0,8.893065693430655,4.479227941176471,42.98478500551268,73.28421052631579,2.8389426927838053,2.8389426927838053,5.033283547794118,22.512692702980473,48.301764057331866,82.34906015037593,0.028111790536381177,0.013645504165469693,0.37781256826622006,0.16878659726740403,2.478160328879753,1.5549705005392374,0.0,0.8275547445255474,0.007669183732096688,0.2728102189781022,0.13298483455882354,0.03268612132352941,0.0,-0.41345093715545755,-0.04308363970588235,0.0,0.0,8.911671928977,0.05608287416362678,0.035653871177618736,-4.383777239709443,874800000.0,2820900000.0,-876000000.0,0.37781256826622006,1320950000.0,788600000.0,726850000.0,73.05261948529412,92.74000583600817,67.16953603735045,1.231988676574664,0.9704549745138757,1.3398931317607194,0.07980776232432826,-0.18159806295399517
PPG,1994-12-31,1994,Q3,4.01864406779661,0.36561743341404357,0.45544794188861987,0.21864406779661016,0.15036319612590798,6.191283292978208,6.361501210653753,6.191283292978208,2.7702179176755446,7665279999.999999,8747280000.0,12.690860927152318,4.618473218051455,40.751089845826684,84.88682170542634,2.9977630035197493,2.9977630035197493,5.270398264746641,25.28115606936416,46.503349282296654,96.86910299003323,0.01969921516239459,0.011780391583869084,0.447438404380133,0.19411595038938564,3.1271676300578033,1.5220779220779221,0.0,1.2456953642384105,0.008010144443516741,0.4066225165562914,0.15291920226546965,0.035548593119238414,0.0,-0.5199362041467305,-0.05892631198409351,0.0,0.0,7.136660627363029,0.04321140921642197,0.02561970851219057,-4.696428571428571,743700000.0,2627300000.0,-1098400000.0,0.447438404380133,1229050000.0,744650000.0,686600000.0,66.63915165391336,46.430208229550665,61.54827139583541,1.3505574090650174,1.9383932020084975,1.4622668997668997,0.059053578412201796,-0.23680387409200968
PPG,1994-09-30,1994,Q2,3.7065882352941175,0.3423529411764706,0.6164705882352941,0.4112941176470588,0.38988235294117646,6.329176470588235,6.482352941176471,6.329176470588235,2.5138823529411765,8419249999.999999,9321950000.0,14.46606529209622,5.344537548403478,32.13454198473282,48.16504576659038,3.1299490687386147,3.1299490687386147,5.917571256268647,28.551148545176112,35.579961832061066,53.329233409610985,0.0172818243905336,0.02076194435371322,0.3971894865980148,0.1821188101934714,2.7647779479326187,1.79545630766845,0.0,1.8006872852233677,0.00706713780918728,0.40893470790378006,0.14327429695930935,0.035358344442328445,0.0,-0.332824427480916,-0.05535453564400432,0.0,0.0,6.98235447742686,0.04230670643049512,0.024801840961390948,-3.9541176470588235,1025900000.0,2755000000.0,-795900000.0,0.3971894865980148,1262000000.0,980450000.0,690650000.0,70.22662350028567,90.87932647333957,64.2469597754911,1.2815652456882525,0.9903242408646423,1.4008444962143274,0.054091230157254915,-0.2051764705882353
