symbol,date,calendarYear,period,revenuePerShare,netIncomePerShare,operatingCashFlowPerShare,freeCashFlowPerShare,cashPerShare,bookValuePerShare,tangibleBookValuePerShare,shareholdersEquityPerShare,interestDebtPerShare,marketCap,enterpriseValue,peRatio,priceToSalesRatio,pocfratio,pfcfRatio,pbRatio,ptbRatio,evToSales,enterpriseValueOverEBITDA,evToOperatingCashFlow,evToFreeCashFlow,earningsYield,freeCashFlowYield,debtToEquity,debtToAssets,netDebtToEBITDA,currentRatio,interestCoverage,incomeQuality,dividendYield,payoutRatio,salesGeneralAndAdministrativeToRevenue,researchAndDdevelopementToRevenue,intangiblesToTotalAssets,capexToOperatingCashFlow,capexToRevenue,capexToDepreciation,stockBasedCompensationToRevenue,grahamNumber,roic,returnOnTangibleAssets,grahamNetNet,workingCapital,tangibleAssetValue,netCurrentAssetValue,investedCapital,averageReceivables,averagePayables,averageInventory,daysSalesOutstanding,daysPayablesOutstanding,daysOfInventoryOnHand,receivablesTurnover,payablesTurnover,inventoryTurnover,roe,capexPerShare
EOG,2022-12-31,2022,FY,50.760757314974185,13.354561101549054,5.449225473321859,3.703958691910499,10.27882960413081,42.648881239242684,42.648881239242684,42.648881239242684,9.557659208261619,75251120000.0,74653120000.0,9.698559092666581,2.5515773769157737,23.768515476942515,34.96799256505576,3.036890915694742,3.036890915694742,2.5313006917130068,4.885675392670157,23.579633607075174,34.69011152416357,0.10310809991931016,0.0285975810061033,0.21687719439848258,0.12989775446568852,-0.03913612565445026,1.9000544168329403,80.27932960893855,1.594962216624685,0.01868410729302102,0.18120891867508698,0.019327275193272753,0.0,0,-0.3202779532533165,-0.03438220534382205,-1.1142857142857143,0.0011867625118676252,113.20350937360092,0.36983705766466657,0.18754683232215805,-13.662220309810671,4962000000,24779000000,-6117000000,0.21687719439848258,2603000000.0,2387000000.0,821000000.0,35.53217821782178,168.21623589370222,70.28940662540954,10.272378962034134,2.169826224328594,5.19281663516068,0.3131280519794988,-1.7452667814113598
EOG,2021-12-31,2021,FY,33.85370051635112,8.027538726333907,15.130808950086058,8.504302925989673,8.965576592082616,38.17555938037866,38.17555938037866,38.17555938037866,9.512908777969018,51610230000.0,51750230000.0,11.065658233276158,2.623937668412222,5.8708030940734846,10.445300546448088,2.326881424706943,2.326881424706943,2.6310554679953224,4.590635145923889,5.886728472301217,10.473634891722323,0.09036968058464377,0.0957368335696237,0.24116321009918845,0.139894340412177,0.012419054377716668,2.1237011380504702,34.28089887640449,1.8848627787307033,0.052005193543993126,0.5754716981132075,0.025979968478316132,0.0,0,-0.437947901262655,-0.19573948853525852,-0.7458349476946919,0.007727896690223193,83.03767265417913,0.17274128909582892,0.12197928653624857,-15.15275387263339,4542000000,22180000000,-7472000000,0.24116321009918845,1940146500.0,1961596500.0,606700500.0,43.33087599776298,153.1019644527596,39.88026192703462,8.42355460385439,2.3840321141837646,9.152397260273972,0.2102795311091073,-6.626506024096385
EOG,2020-12-31,2020,FY,17.052227979274612,-1.0441658031088084,8.649020725388601,2.665082901554404,5.749443868739205,35.063708117443866,35.063708117443866,35.063708117443866,10.909775474956822,28874730000.0,31657296000.0,-47.76061412040253,2.92454452641686,5.7659706900239085,18.71236349567716,1.4222682847165882,1.4222682847165882,3.2063735916477265,8.183370725174235,6.321618967914544,20.515614519763357,-0.020937754223156375,0.05344060360044925,0.30103083521251006,0.17069018587862492,0.7192897695768194,1.6942172836423415,2.280640729589898,-8.283187114189873,0.028427036374019776,-1.3576927148462052,0.04900346795985917,0.0,0,-0.6918630459826235,-0.350918239605236,-0.7870241754327701,0.014827554075460539,28.701521062385027,0.014338269627423758,-0.016885315940261422,-18.480338082901554,2402064000,20301887000,-9640546000,0.30103083521251006,1849308000.0,2055160000.0,698349000.0,57.1273406703372,124.64821718250363,46.66550035771322,6.389234921791531,2.9282408384998035,7.82162405207491,-0.029779103784786112,-5.9839378238341965
EOG,2019-12-31,2019,FY,29.310946366782005,4.731678200692041,14.123148788927336,3.0115121107266436,3.5086020761245673,37.440685121107265,37.440685121107265,37.440685121107265,9.913385813148789,48413280000.0,51930116000.0,17.70196459846942,2.8576354701029003,5.930688775697706,27.813270184654733,2.2371385493899556,2.2371385493899556,3.065219738223854,6.749335465527648,6.361505687734437,29.833680903844186,0.05649090497483335,0.03595406053876127,0.2562210973056529,0.14935667468865935,0.4570817045978559,1.17525141587185,19.98072155091855,2.984807543941117,0.012149558963986739,0.21507106266751008,0.02888707863135795,0.0,0,-0.7867676567220128,-0.37909511822496017,-1.6203311441396349,0.010314060662174523,63.135082609803064,0.10355737849187481,0.07366838728640583,-19.822282439446365,786351000,21640716000,-10210553000,0.2562210973056529,2248223500.0,2334488500.0,813328000.0,46.39213552431816,158.44589039027312,50.048867909658654,7.86771283267768,2.3036255411923707,7.292872251553179,0.1263779812091245,-11.111636678200693
EOG,2018-12-31,2018,FY,29.78987513007284,5.929656607700312,13.473132154006244,2.934673950745751,2.6979431148109607,33.583399236906004,33.583399236906004,33.583399236906004,10.97522372528616,50285286000.0,54812914000.0,14.707428400954653,2.9275047182712632,6.472882400553612,29.71710025157597,2.5968187253707717,2.5968187253707717,3.191093799430652,6.6363019227302384,7.055693117737437,32.39279300149575,0.06799285182548231,0.033650658763281174,0.3141501208312995,0.17926495633909045,0.5481683823962956,1.3564635856370246,18.238357573086528,2.272160606486031,0.00871119635274621,0.1281192966446722,0.024857246751178126,0.0,0,-0.7821832431241221,-0.35375973068856315,-1.6102991196253247,0.009043396917780347,66.93732566265655,0.141591056319063,0.10075417700595565,-18.77840704127645,1329026000,19364188000,-9512896000,0.3141501208312995,2026987500.0,2043490500.0,671612000.0,49.79030836983888,158.590861908661,60.84625510590665,7.33074391282749,2.301519744625756,5.998725794458427,0.17656511081177273,-10.538458203260493
EOG,2017-12-31,2017,FY,19.502224155934563,4.4945683954055,7.42313957535677,0.24555168813087366,1.4518412808910546,28.33844935607379,28.33844935607379,28.33844935607379,11.59318308388444,62005086000.0,67557929000.0,24.00897939617723,5.5332150393299,14.536975750562206,439.4594100386976,3.807900659775218,3.807900659775218,6.028740106396782,13.77763468122132,15.838829344276746,478.8150382014827,0.04165108326758873,0.0022755230111284742,0.39224736943242305,0.21409359771727207,1.132436168908864,1.2031030892204193,3.376445118306533,1.6515800678314196,0.006233859590163297,0.14966860645889246,0.03877100240603721,0.0,0,-0.9669207771673791,-0.36803945179974473,-1.0394030083961394,0.011944428232859282,53.53321141253057,0.15961509739694488,0.0865676347576338,-19.47529803341455,553566000,16283273000,-10270697000,0.39224736943242305,1469738000.0,1679478500.0,416941000.0,55.725668478021284,146.47001885071265,38.36853784122516,6.549943858348857,2.49197755871132,9.513002593698655,0.15860318745500368,-7.177587887225896
EOG,2016-12-31,2016,FY,13.485728225514999,-1.98172388868811,4.262853270690278,-0.4042862305746296,2.891028189374774,25.264873509215757,25.264873509215757,25.264873509215757,13.13342790025298,55948740000.0,61335203000.0,-51.01618877235599,7.496814284653817,23.71650947855144,-250.0703520283196,4.001603252164401,4.001603252164401,8.21856981949087,21.97108394978853,25.99981560475494,-274.1458664831137,-0.019601621055273095,-0.003998874684219877,0.49968297576647447,0.23715181483635478,1.9295025528069054,1.753375810379467,-4.349888703888441,-2.151083354761527,0.0066640464110541186,-0.33997424969407836,0.05290297389709932,0.0,0,-1.09483934935184,-0.3460799018947067,-0.6396064981055447,0.017163334540175657,33.5638209386635,-0.04114649102861861,-0.03722698939928681,-23.096277105168053,1527312000,13981581000,-11923249000,0.49968297576647447,1099969500.0,1491889500.0,474476000.0,60.08950888663838,119.86187190063795,27.750344826088185,6.074271645131753,3.0451718650162123,13.152989711928278,-0.07843791056247501,-4.6671395012649075
EOG,2015-12-31,2015,FY,15.862915521348727,-8.291213120762324,6.588171156312993,-2.59849367784497,1.316668499175371,23.71822429906542,23.71822429906542,23.71822429906542,12.64001649257834,38630103000.0,44571861000.0,-8.537954454786867,4.4626096573942515,10.74501531918563,-27.242706266158343,2.9846247808184097,2.9846247808184097,5.149010794680879,13.972803858176162,12.397723331196204,-31.432950540127703,-0.11712407290242016,-0.036707072719945895,0.5145828625202666,0.2469028269030671,1.8626778699401643,1.4248680939291052,-28.164600472633985,-0.794596768935455,0.009500492400965121,-0.08111477141748895,0.0423495097784955,0.0,0,-1.3944180586982795,-0.5791283967814308,-0.5090536094311884,0.015084458388153126,66.51833718205745,-0.22295162139060506,-0.1677284179524011,-22.51374381528312,772957000,12943035000,-11439965000,0.5145828625202666,1411123000.0,2166250500.0,652766000.0,40.95581265776635,115.73747404720554,47.093367803498516,8.912043891058916,3.153689010450741,7.750560578359922,-0.34957141041494516,-9.186664834157963
EOG,2014-12-31,2014,FY,30.620598086124403,5.3652686786897315,15.916737210158264,0.7404306220095693,3.841025027603975,32.595844681634155,32.595844681634155,32.595844681634155,11.246578947368421,50030838000.0,53853558000.0,17.160370805975123,3.0067995321659358,5.78447698069927,124.34655896607431,2.8245931620810563,2.8245931620810563,3.2365408910374653,6.2653010414953085,6.226453104378405,133.84754069839693,0.058273799051696884,0.008042039991414895,0.33365734030193905,0.17000794558832577,0.444733690526909,1.600333362093521,26.019433331016888,2.9666244438750713,0.005590452032804248,0.0959342298559383,0.024160368449675534,0.0,0,-0.9534810047917975,-0.4956241071929217,-2.499566573939758,0.008719512491952002,62.728964217741215,0.12951034142063805,0.08386828670637572,-24.33086952521163,2031713000,17712582000,-11634084000,0.33365734030193905,1757291000.0,2557483000.0,634932500.0,40.60224290386462,187.81297274778234,46.39253845929687,8.989651159523959,1.943422728791826,7.867644498915223,0.16459977432990855,-15.176306588148693
EOG,2013-12-31,2013,FY,26.648718124295584,4.066152670258226,13.5644232068268,0.4974395798208909,2.4395872236236005,28.534682728129088,28.534682728129088,28.534682728129088,11.379260504015058,45345416720.0,49940428720.0,20.63867414861985,3.149119578982311,6.186772465029264,168.70390576925223,2.9409824107584295,2.9409824107584295,3.4682310416514026,6.633034528805571,6.81370007479452,185.79927124451703,0.048452724860083715,0.005927545040763714,0.38351569375383104,0.19340534341362817,0.6103045976469532,1.422927711904326,15.608642656926866,3.33593554074923,0.004392461562981971,0.09065458290872233,0.024189349621980646,0.0,0,-0.9633276275565823,-0.49034192061541476,-1.802453569881378,0.009309766139480166,51.093967044299376,0.110139650401431,0.07186144753632126,-22.778575936306886,1210299000,15418459000,-11083764000,0.38351569375383104,1674715500.0,2166683000.0,623227500.0,42.17067800418004,170.90186455374808,42.69995690393732,8.655303098608481,2.135728600463623,8.5480179949864,0.1424986115668239,-13.066983627005909
EOG,2012-12-31,2012,FY,20.655960388639762,1.065543721973094,9.78471038863976,-3.9580325112107624,1.6375840807174888,24.822055306427504,24.822055306427504,24.822055306427504,12.193073617339312,32326080000.0,37761826000.0,56.68467539572735,2.9240954602729787,6.172896038918594,-15.260107093340585,2.4333198542330146,2.4333198542330146,3.4157925730004424,7.060494442560158,7.210890591674994,-17.82614869480286,0.017641452350547916,-0.06553033958958215,0.4751443834455772,0.23090604098289114,1.0163453013148414,1.2277061535715093,6.92944575560051,9.182833314921293,0.00560166899296172,0.31752878854034605,0.029990312137327037,0.0,0,-1.4045119736815221,-0.6653160947872786,-1.6350232234102289,0.011558316681848238,24.394715963918024,0.0336232875365242,0.020861389454086023,-21.617058576233184,665826000,13284764000,-10461930000,0.4751443834455772,1581808500.0,2056281500.0,636890500.0,55.65863128863047,177.80444267403988,58.43036178737962,6.557832838310552,2.05281709787835,6.246752353308831,0.04292729626209393,-13.742742899850523
EOG,2011-12-30,2011,FY,19.273153787590406,2.0767472401979443,8.714141606395128,-4.515420631899505,1.1719185382565664,24.059581271412256,24.059581271412256,24.059581271412256,10.29541682527598,25881204000.0,30274644000.0,23.71978594530589,2.5558868332030595,5.652880366764881,-10.909282659515545,2.047417178391672,2.047417178391672,2.9897590536943337,5.348190082298617,6.612479878385728,-12.76117791166927,0.04215889647174065,-0.09166505545878005,0.4112719311846684,0.20930357456522553,0.776126458668648,1.2900580775072463,10.046010942989025,4.196053057263022,0.006459088997559774,0.15320820842379823,0.030101475244948335,0.016952009729298945,0,-1.5181715923213517,-0.6864243591940246,-2.762225593024268,0.012674653606047335,33.529502719676294,0.06767997885820166,0.04392817413822417,-19.37284545108489,731619000,12640904000,-8943955000,0.4112719311846684,1323015500.0,1849279500.0,503193000.0,53.269209366079686,442.38241637865633,128.47485921314316,6.851988312640915,0.8250780014899576,2.8410227669092474,0.08631684885827785,-13.229562238294633
EOG,2010-12-31,2010,FY,12.15603029095257,0.3201554404145078,5.397772020725388,-5.724950179354324,1.5720466321243523,20.389860502192107,20.389860502192107,20.389860502192107,10.667451175767239,22937278000.0,27371766000.0,142.77439715164266,3.760273617779713,8.468308743772619,-7.984348958152034,2.2418005260548854,2.2418005260548854,4.487251258054235,8.532633268202297,10.105495750206195,-9.527971511915288,0.007004056889400739,-0.12524502689464723,0.5105090761669302,0.241550347704818,1.3823682343420538,1.1384384209893343,4.038391492908184,16.85984787182392,0.006680827602996309,0.953851133491852,0.07669884863610789,0.0,0,-2.0606135563659778,-0.9149962556738672,-2.2517902948469364,0.017603250940671774,12.119336091720044,0.013333838165542795,0.007429350210941586,-18.971115484256675,307347000,10231632000,-8865155000,0.5105090761669302,988310500.0,1322041500.0,338757500.0,69.90138438425836,496.9522832892974,124.10554575614768,5.221641934779725,0.7344769553810819,2.941045041751645,0.015701698419176922,-11.122722200079712
EOG,2009-12-31,2009,FY,9.612367469879517,1.097644578313253,5.86835140562249,-1.1658032128514055,1.3770100401606427,20.076389558232933,20.076389558232933,20.076389558232933,5.819078313253012,24227700000.0,26338949000.0,44.32217947521802,5.061188115461194,8.29023291846297,-41.73088516457964,2.423244471267474,2.423244471267474,5.502229912560354,9.320681024296666,9.012659973398932,-45.367395835127546,0.022562067385678376,-0.02396306706786034,0.27975477598513787,0.15437117973413828,0.7471170733450796,1.3671192663277743,9.621718317955223,5.346312933682383,0.0058717913792889955,0.26025059135388484,0.05186465979758757,0.0,0,-1.1986594074333117,-0.7317817010757769,-1.6365224338011324,0.019883186799803384,22.267165364965777,0.04756368662514139,0.030169272386318485,-13.449182730923695,493981000,9998042000,-6281084000,0.27975477598513787,779087000.0,1050674000.0,224846500.0,61.641532755973046,313.1978965652019,83.71752435837439,5.9213323173673285,1.1653973542060934,4.359899588496234,0.05467340505270932,-7.034154618473895
EOG,2008-12-31,2008,FY,12.945891543894074,4.939794131240321,9.391898630514632,-1.1396607503385199,0.6715890570902693,18.272974758981928,18.272974758981928,18.272974758981928,3.845343020003081,16422755960.0,17988444960.0,6.739147242891536,2.57147218382972,3.544544219401979,-29.210447047607527,1.8218161212988366,1.8218161212988366,2.816627486741995,3.6703614139234007,3.8824688593252814,-31.995270480344065,0.1483867266818961,-0.03423432713543166,0.21043880762287678,0.11892502808248093,0.3194631055982237,1.1946466574046584,0.0,1.9012732881150338,0.007014900561184495,0.04727444777606478,0.0,0.0,0,-1.1213450863530106,-0.8135059176994541,-3.9155692887423457,-0.10213122359770635,45.066134770814685,0.22456571223968505,0.15277314734303182,-12.059259229228662,343535000,9014497000,-4828278000,0.21043880762287678,847894000.0,1137174500.0,145146000.0,42.84932370826736,321.078516445615,53.78064935879346,8.518220788851721,1.136793591924499,6.786827685268926,0.27033333085584255,-10.531559380853151
EOG,2007-12-31,2007,FY,8.293655455109274,2.2383095999901426,5.941957703034062,-1.6135462830996965,0.11137146823620256,14.355203331841015,14.355203331841015,14.355203331841015,2.433574705609338,21732042940.0,22862811940.0,19.93915408315121,5.381221855859211,7.510992543284377,-27.659572252407735,3.1089772097485384,3.1089772097485384,5.661219409403897,7.685115714666513,7.9018070447385655,-29.098764460090848,0.05015257898252616,-0.03615384904995959,0.1695256172520713,0.09802375020338894,0.3800971916474478,0.8764518339133207,0.0,2.6546630113458076,0.003866180470560031,0.07708836811576651,0.0,0.0,0,-1.2715512906252755,-0.9109980547213616,-3.452751408903425,0.032282562617370426,26.887845992531272,0.13475466560039023,0.09015852301618335,-8.797610784124467,-182131000,6990094000,-3806774000,0.1695256172520713,897242500.0,1024356000.0,107956500.0,85.50326656260152,459.07002892855195,40.77018721685498,4.26884275506321,0.795085666672453,8.952620159887415,0.15592322506678738,-7.5555039861337585
EOG,2006-12-31,2006,FY,8.074246635398831,2.6881343524331838,5.332392403073843,-0.4977148836555244,0.4513466676592964,11.57999975184257,11.57999975184257,11.57999975184257,1.5167423546831442,15101703720.0,15616890720.0,11.617722890871114,3.8678531149993023,5.856658257557631,-62.746767327164626,2.6968912495037656,2.6968912495037656,3.999802971764016,5.921486657318814,6.056455197934656,-64.8873416238361,0.08607538752587844,-0.015937076005620377,0.1309794807587803,0.07800781947977911,0.1953444511600007,1.0757506701131145,0.0,1.9836777868811473,0.004002396095213554,0.04649872873369567,0.0,0.0,0,-1.0933380077896402,-0.7220620758807658,-3.450334051737326,-0.007002073293950566,26.464946448408966,0.2034047392455387,0.13825386932364478,-5.978742731055248,95068000,5599671000,-2452409000,0.1309794807587803,805453500.0,788060000.0,88403000.0,79.31596026549431,455.9065085163235,57.76097871546033,4.601848086794076,0.800602740214952,6.3191450026850715,0.23213595941618714,-5.830107286729368
EOG,2005-12-31,2005,FY,7.552419000238697,2.63733631494533,4.96117204152481,1.3498138586330648,1.3480299166237433,9.037575848942826,9.037575848942826,9.037575848942826,2.062561506216577,17522923860.0,17864179860.0,13.91176384751694,4.858046143737576,7.395429888926685,27.18152563432367,4.059716965395298,4.059716965395298,4.95265577670024,6.310606990629563,7.539454644289377,27.710881282158276,0.07188161120047235,0.03678969361223944,0.22822065791656357,0.127050992349084,0.12055031443208288,1.3337741597776869,0.0,1.8811298405177614,0.0024531294174099097,0.034127357142403475,0.0,0.0,0,-0.7279244002555894,-0.4781723819583642,-2.636212319910494,0.054758122423405664,23.157943716433895,0.2408204302254889,0.16245634128347597,-4.584988504880714,391197000,4316292000,-1873790000,0.22822065791656357,606718000.0,552064500.0,51626000.0,77.15536499962572,434.17189028905113,40.388870314712676,4.730714448720067,0.8406808643392373,9.037143083129004,0.2918189964905062,-3.611358182891745
EOG,2004-12-31,2004,FY,4.924772514342185,1.3365825172940438,3.089499082356867,0.05917193937138237,0.04487681336122626,6.300345239164752,6.300345239164752,6.300345239164752,2.305063935555356,8340235680.0,9396877680.0,13.34747370189884,3.622502348696392,5.774398866754319,301.4942587571847,2.8315908609422618,2.8315908609422618,4.081444790324283,5.923774572132996,6.505969604257149,339.6912005205509,0.07492054469137016,0.003316812745032644,0.365863115123663,0.18583140352096414,0.6661051920224371,0.9281861551018342,0.0,2.3114914660201165,0.004507666382876125,0.06016595850237255,0.0,0.0,0,-0.9808474002438472,-0.6153232731380799,-2.8086351587916805,0.06882994308836093,13.7648448680197,0.16423920096853178,0.10775362942394648,-5.2925335078780416,-45401000,2945424000,-2266696000,0.365863115123663,377034000.0,353480000.0,30979500.0,71.49484372645061,338.98200665399446,31.965214176814264,5.105263274601197,1.0767533167993857,11.418662736968304,0.21214432964490001,-3.0303271429854846
EOG,2003-12-31,2003,FY,3.9712950600801067,0.9383862579299632,2.880313184463817,0.25288183809349285,0.009692662111573602,4.850434566349905,4.850434566349905,4.850434566349905,2.419068562004241,5289797520.0,6394226520.0,12.297707796208256,2.9058530845520254,4.00650875823013,45.633961248468744,2.379168266707325,2.379168266707325,3.512550865362114,4.9616263687830555,4.843006647726541,55.161635984057696,0.08131596689167793,0.02191350416754704,0.49873233602338063,0.2334951563640039,0.8569862252625828,0.8310560544280501,0.0,3.069432400702089,0.005915916418668518,0.07275221146357623,0.0,0.0,0,-0.9122033536292103,-0.6616056743759867,-2.7258166362259897,0.14360572491449652,10.119811050417528,0.13994283297432336,0.09057562462952844,-4.980299440648533,-80505000,2223381000,-2129620000,0.49873233602338063,306613500.0,242155000.0,20425000.0,60.772178989823075,312.2194841191706,24.238613816397315,6.006037730868972,1.1690493981492958,15.058616914515099,0.19346436800530364,-2.627431346370324
EOG,2002-12-31,2002,FY,2.37359864741839,0.18895608444964668,1.4491914856721724,-0.09874929553041141,0.021346512333636797,3.62508128495253,3.62508128495253,3.62508128495253,2.4821866736029827,4604173200.0,5739457200.0,52.816505110527345,4.204586150592309,6.886598561108037,-101.06401211668899,2.7530417156234024,2.7530417156234024,5.241341106593755,9.87226285407622,8.584676548454164,-125.98409026055272,0.01893347539575618,-0.009894718991023187,0.6847257974342186,0.30024389054448264,1.9527669031188293,1.4285890045630376,0.0,7.6694618746630265,0.0063316471239613665,0.33441547268076127,0.0,0.0,0,-1.0681409575661487,-0.6521493357296015,-1.794126661909978,0.2022554509623428,3.9258217256858834,0.04688062717462273,0.022856020677471403,-4.096109702171934,118441000,1672395000,-1746819000,0.6847257974342186,252378500.0,210746000.0,18899500.0,103.37426806059344,207.7151557339165,19.470177772266624,3.530859340992413,1.7572140978849211,18.746618765849536,0.052124647586246076,-1.5479407812025838
EOG,2001-12-31,2001,FY,3.5738068500842224,0.8608301300047511,2.585900315293914,0.4824666349933054,0.005424782965490433,3.5474582127586056,3.5474582127586056,3.5474582127586056,1.8485055932276595,4528726800.0,5382183800.0,11.361126497681978,2.736577663610869,3.7820483419866098,20.270831785364194,2.756903510470047,2.756903510470047,3.2522968637737804,5.256567603967977,4.49479074716037,24.09095254933732,0.08801944069578232,0.049331966768231636,0.5210788915227864,0.25071996728806073,0.8335379437580147,0.8763829150675413,0.0,3.003961205771971,0.006310824490450605,0.07169807534067875,0.048319311227896525,0.0,0,-0.813424116877271,-0.5885694914516822,-2.4822081605712554,0.13302660544194256,8.289123932943504,0.17042305139865777,0.11675772192742682,-3.4843054895693863,-38426000,1642686000,-1498937000,0.5210788915227864,268601500.0,232795500.0,17747000.0,42.926048727194065,203.6956223359234,17.50739015171734,8.502995519565932,1.791889269952314,20.84833872078851,0.2426611050438124,-2.103433680300609
EOG,2000-12-31,2000,FY,3.1853331794003457,0.8486218721672054,2.0682821078557136,0.7798672755571519,0.04308413292968683,2.952359878221903,2.952359878221903,2.952359878221903,1.8365060632493544,6389273760.0,7228121760.0,16.096686225061788,4.2884053976958105,6.604514900610909,17.515800993497308,4.626807219798323,4.626807219798323,4.8514303088472674,6.7603779687220875,7.471621918317983,19.81545118594629,0.062124588006384,0.05709130860594084,0.6220468164454985,0.2862555672375671,0.7845647495438132,1.0669474515659574,0.0,2.437224605787908,0.004080432452780048,0.06568144085495968,0.06889680145245135,0.0,0,-0.6229396016166878,-0.4044835374304901,-1.6286369065957527,0.10291866205336618,7.5081513211495885,0.19491409862319342,0.13227439878832917,-2.8530886012622503,24749000,1380925000,-1225463000,0.6220468164454985,245389500.0,209415000.0,17711500.0,83.9262733279862,398.3222295163408,26.912613995245025,4.349055254408472,0.9163435353412186,13.56241352343139,0.28743849231493385,-1.2884148322985616
EOG,1999-12-31,1999,FY,1.424478129799215,1.0115678857857915,0.7858270291792275,0.06985524145384221,0.04408167908537626,2.007849382856493,2.007849382856493,2.007849382856493,1.7602454354132302,2469778880.0,3435278880.0,4.339797715691442,3.0818303968055902,5.586471115132323,62.84424631043257,2.186418980169971,2.186418980169971,4.286597055153481,-25.77103435858965,7.770366161501923,87.41167633587786,0.23042548651156983,0.01591235568424652,0.8766820113314447,0.37930902405392986,-7.243060765191298,0.9172003659652334,0.0,0.7768406255491126,0.0070451651121091466,0.030574591460200317,0.10344397304716746,0.0,0,-0.9111060845962452,-0.5026204142750187,-0.8758425744727114,-0.6568505116046918,6.760119007223919,0.008559194420275158,0.217979163474797,-2.3744560889596724,-18100000,1129600000,-1280700000,0.8766820113314447,170900000.0,189550000.0,29200000.0,67.49812827551784,335.8466453674121,36.53887113951012,5.407557354925776,1.0868055555555556,9.98936170212766,0.503806657223796,-0.7159717877253854
EOG,1998-12-31,1998,FY,1.248685082011922,0.09123258139504682,0.6551862962818664,-0.46557836911208944,0.010227139907273931,2.0783820989337802,2.0783820989337802,2.0783820989337802,1.8551707120686745,2654994479.9999995,3791494479.9999995,47.241894661921705,3.451630889235569,6.578281665014866,-9.257302928870292,2.073728407404514,2.073728407404514,4.929139989599584,8.744221586715867,9.39418850346878,-13.219994700139468,0.021167652295834533,-0.10802282345988157,0.892603296102476,0.37864881879328055,2.621079335793358,0.9383092155369384,0.0,7.181494661921708,0.006967999421226669,0.3291814946619217,0.08970358814352575,0.0,0,-1.7106045589692764,-0.8975559022360895,-2.191050460171374,0.15405616224648985,2.065517777761099,0.04373288524157307,0.018620986713495245,-2.542986454721367,-16200000,1280300000,-1491400000,0.892603296102476,212850000.0,221000000.0,35800000.0,91.866874674987,342.89389799635705,65.81967213114754,3.9731404958677685,1.0644692195831313,5.545454545454546,0.04389596188393345,-1.120764665393956
EOG,1997-12-31,1997,FY,1.2523155730519502,0.19499999988811476,0.8485696716442633,-0.1523237704044044,0.014864754089831698,2.047499998825205,2.047499998825205,2.047499998825205,1.1848647534185202,3315897437.7999997,4047897437.7999997,27.179487195081965,4.232160099298022,6.245804177434545,-34.79430679748163,2.5885225900078064,2.5885225900078064,5.16642940370134,8.566978704338624,7.62459491015257,-42.47531414270724,0.03679245280907826,-0.028740334038566868,0.578688524590164,0.27219651905706105,1.5492063492063493,0.9690721649484536,0.0,4.351639344262295,0.005699814410586713,0.15491803278688523,0.06943203573707722,0.0,0,-1.1795064983989452,-0.799234205488194,-2.2508986340762043,0.11576260370134014,2.9972330973234587,0.07110140889328634,0.04479694499522655,-1.9868022529583922,-9000000,1281000000,-1160400000,0.578688524590164,254700000.0,256650000.0,26350000.0,108.12571793235483,433.8401412002017,58.9006555723651,3.3757001292546316,0.8413237165888842,6.196875,0.09523809523809523,-1.0008934420486677
EOG,1996-12-31,1996,FY,1.1426122750276817,0.21895116137951742,0.5709933501404415,-0.27243780223079955,0.011885920189173803,1.9785365304373392,1.9785365304373392,1.9785365304373392,0.7289509737070934,4034689719.9999995,4493189720.0,28.819212285714286,5.5224332329592105,11.050916789920569,-23.161249827784154,3.189225926804205,3.189225926804205,6.1499996167533535,9.660696022360783,12.306737113119693,-25.793281974741678,0.03469907470356853,-0.04317556295258314,0.36842937317208124,0.18959485844451676,0.9858095033326166,1.0267800882167613,0.0,2.6078571428571427,0.004758730245060828,0.13714285714285715,0.07719682452778538,0.0,0,-1.4771295535469735,-0.7381604160963592,-2.1460405889375247,0.11743772241992882,3.1220289238488435,0.0884052220534012,0.05694760820045558,-1.5129134267107904,8500000,1265100000,-867400000,0.36842937317208124,222900000.0,205650000.0,16200000.0,138.5361346838215,610.3855421686746,45.515060240963855,2.6346916696718354,0.5979827089337176,8.019323671497585,0.1106631886807367,-0.8434311523712411
EOG,1995-12-31,1995,FY,1.014119824659042,0.22214648849090465,0.5243344985211078,-0.17133888204506087,0.03595615225398175,1.8192249729547203,1.8192249729547203,1.8192249729547203,0.451953200722875,3838008000.0,4104108000.0,27.00920478536242,5.9164606135347615,11.443076923076923,-35.018321167883215,3.2981077597318897,3.2981077597318897,6.3266656389702485,9.992958363769175,12.236457960644007,-37.44624087591241,0.03702441474848411,-0.02855648034084348,0.24843172638996305,0.13463419177571834,0.647918188458729,1.286473715298287,0.0,2.3603096410978184,0.005002595096206157,0.13511611541168192,0.08725142592878064,0.0,0,-1.326774001192606,-0.6859873593340527,-2.060185185185185,0.03006012024048096,3.015464290806504,0.10387116033805785,0.0661761281609463,-1.2950077227561798,48500000,1163700000,-765800000,0.24843172638996305,147350000.0,132450000.0,13700000.0,94.8088484661631,329.510465901418,28.83524645509791,3.8498516320474776,1.1077038145100973,12.658119658119658,0.12211050958150726,-0.6956733805661687
EOG,1994-12-31,1994,FY,0.9700021896211956,0.2314742406706497,0.6661140479839844,-0.025337045262598144,0.009071287810066001,1.6318933967280804,1.6318933967280804,1.6318933967280804,0.300290906815978,2998692200.0000005,3184892200.0000005,20.261433783783783,4.835040632054177,7.040836346560226,-185.1044567901235,2.8739622388345794,2.8739622388345794,5.135266365688488,8.212718411552348,7.478028175628083,-196.59828395061731,0.049354848757068165,-0.005402355066652055,0.18401380103507764,0.10312046833879371,0.48014440433212996,0.9501822600243013,0.0,2.877702702702703,0.00640279119010614,0.12972972972972974,0.08287649145436955,0.0,0,-1.0380370979103075,-0.7128345694937117,-1.8253509496284064,0.05111254434053531,2.9153351281489566,0.11987709757307784,0.07948869434448681,-1.1107635521911852,-8200000,1043400000,-662100000,0.18401380103507764,125700000.0,144000000.0,14900000.0,74.27120283779426,331.86417186417185,39.71240471240471,4.914421553090333,1.0998475609756098,9.19108280254777,0.14184397163120568,-0.6914510932465826
EOG,1993-12-31,1993,FY,0.8844601450877645,0.21500000003894928,0.747358695787565,0.1505000000272645,0.16062681162330195,1.4537427538865475,1.4537427538865475,1.4537427538865475,0.285108695703824,3132279069.2,3212179069.2,22.697674414492752,5.517489993306324,6.529662433187409,32.42524916356108,3.35685250155396,3.35685250155396,5.65823334366743,9.67815326664658,6.696224868042526,33.25237131677019,0.04405737705716174,0.030840163940013217,0.1961204586861001,0.10103798586572438,0.24073516119313046,1.1445617255621845,0.0,3.476086956521739,0.006129722025344241,0.1391304347826087,0.0,0.0,0,-0.7986241400875547,-0.6748282543596971,-1.5342410893071685,0.1819623040338207,2.651882458405759,0.11262479594960871,0.07619257950530035,-1.0501503625090851,31500000,933100000,-628700000,0.1961204586861001,113450000.0,143700000.0,11800000.0,80.49674123656861,423.6269430051814,38.0940044411547,4.534345047923322,0.8616071428571429,9.581560283687944,0.14789411638623942,-0.5968586957603005
EOG,1992-12-31,1992,FY,0.7310194668386171,0.15749999991931352,0.4944467210581728,-0.09036885241272087,0.21398053267726408,1.345850409146593,1.345850409146593,1.345850409146593,0.24205942610550235,2274234921.8,2291634921.8,23.301587313524593,5.020386140838853,7.422437734334204,-40.611337889285714,2.726900385851319,2.726900385851319,5.058796736865342,8.276037998555436,7.4792262460835515,-40.922052175000005,0.042915531313164446,-0.02462366550755337,0.17985611510791366,0.08665511265164645,0.0628385698808234,1.268618387262455,0.0,3.139344262295082,0.006771508014577178,0.15778688524590165,0.0,0.0,0,-1.1827676240208878,-0.8,-2.0155728587319244,0.11721854304635762,2.18388584522404,0.12376649673880968,0.056383593298671285,-1.1027824020989845,52300000,834000000,-650000000,0.17985611510791366,95600000.0,107450000.0,11350000.0,81.94370860927152,438.94106813996314,31.929097605893183,4.454277286135693,0.8315467075038285,11.43157894736842,0.1170263788968825,-0.5848155734708936
EOG,1991-12-31,1991,FY,0.6354098360655738,0.09,0.3965573770491803,0.04950819672131147,0.006229508196721312,1.0659016393442622,1.0659016393442622,1.0659016393442622,0.6924590163934427,1488400000.0,1907000000.0,27.11111111111111,3.8400412796697627,6.152955766845804,49.28476821192053,2.289141802522301,2.289141802522301,4.920020639834881,8.953051643192488,7.883422902025631,63.145695364238414,0.036885245901639344,0.02029024455791454,0.6496462626884035,0.2901896125309151,1.9652582159624412,0.9682259488084731,0.0,4.406193078324226,0.010212308519215266,0.2768670309653916,0.0,0.0,0,-0.875155022736668,-0.5461816305469557,-1.3157240522063394,-0.03869969040247678,1.4691667092852774,0.07116377322197906,0.0377164056059357,-1.1932377049180327,-3600000,650200000,-695700000,0.6496462626884035,90400000.0,84300000.0,13200000.0,84.28147574819401,282.5482093663912,44.24242424242424,4.33072625698324,1.291814946619217,8.25,0.084435558289757,-0.34704918032786886
EOG,1990-12-31,1990,FY,0.6120329666966852,0.07499999995879121,0.3949450547280522,-0.11423076916800508,0.005934065930805458,1.005494504942036,1.005494504942036,1.005494504942036,0.6896703292913899,1613733334.22,2028533334.22,35.46666668615385,4.3461711129006195,6.735114082721202,-23.2861952989899,2.645464482327869,2.645464482327869,5.4633270514947485,12.074603179880953,8.466332780550918,-29.271765284559883,0.028195488706312485,-0.042943898183460553,0.6859016393442623,0.29508427956837574,2.469047619047619,1.009090909090909,0.0,5.265934065934066,0.009419152271119774,0.33406593406593404,0.0,0.0,0,-1.2892320534223707,-0.8319418260166981,-1.9813983322642719,0.11365472663614327,1.3026020022084235,0.053322350449545065,0.032089710134706254,-1.2020192301087806,1000000,610000000,-696900000,0.6859016393442623,86300000.0,72750000.0,14200000.0,89.75087530298948,273.75,42.86476868327402,4.066812705366922,1.3333333333333333,8.515151515151516,0.07459016393442623,-0.5091758238960572
EOG,1989-12-31,1989,FY,0.5930327868852459,-0.0125,0.24016393442622952,-0.23852459016393443,0.03135245901639344,1.1932377049180327,1.1932377049180327,1.1932377049180327,0.7377049180327869,1488400000.0,1833100000.0,-243.99999999999997,5.143054595715273,12.699658703071671,-12.786941580756015,2.556070753906921,2.556070753906921,6.334139599170698,14.988552739165986,15.640784982935154,-15.74828178694158,-0.004098360655737705,-0.07820478366030637,0.6182380216383307,0.26358178357006884,2.8184791496320525,1.3813038130381303,0.0,-19.21311475409836,0.0,0.0,0.0,0.0,0,-1.993174061433447,-0.8071872840359364,-1.7393894266567387,0.05943331029716655,0.579308298324991,0.004224825036165709,-0.004466246888270611,-1.4336577868852458,31000000,582300000,-671200000,0.6182380216383307,,,,102.53800967519004,263.1095406360424,65.34746760895172,3.5596555965559658,1.3872549019607843,5.5855263157894735,-0.010475699811093938,-0.4786885245901639
